  -1.0898252e+03  -1.1010513e+03  -1.1091431e+03  -1.1130009e+03  -1.1110464e+03  -1.1014041e+03  -1.0820514e+03  -1.0509174e+03  -1.0060174e+03  -9.4569826e+02  -8.6887412e+02  -7.7508496e+02  -6.6432479e+02  -5.3683868e+02  -3.9323314e+02  -2.3492618e+02  -6.4504348e+01   1.1435875e+02   2.9742843e+02   4.8051146e+02   6.5964501e+02   8.3103809e+02   9.9116625e+02   1.1369642e+03   1.2660151e+03   1.3767406e+03   1.4685078e+03   1.5415591e+03   1.5967568e+03   1.6353084e+03   1.6587692e+03   1.6691842e+03   1.6689461e+03   1.6604719e+03   1.6459648e+03   1.6273116e+03   1.6061513e+03   1.5839445e+03   1.5618215e+03   1.5404299e+03   1.5200899e+03   1.5011250e+03   1.4840677e+03   1.4696992e+03   1.4588552e+03   1.4519653e+03   1.4487552e+03   1.4483308e+03   1.4495037e+03   1.4512154e+03   1.4526675e+03   1.4531318e+03   1.4517988e+03   1.4476126e+03   1.4391424e+03   1.4248254e+03   1.4034956e+03   1.3747607e+03   1.3388975e+03   1.2964261e+03   1.2478671e+03   1.1938347e+03   1.1351796e+03   1.0729151e+03   1.0080314e+03   9.4140534e+02   8.7372981e+02   8.0544782e+02   7.3678939e+02   6.6774394e+02   5.9798589e+02   5.2709444e+02   4.5489043e+02   3.8140071e+02   3.0670618e+02   2.3117891e+02   1.5574692e+02   8.1641311e+01   9.9852259e+00  -5.8279489e+01  -1.2238758e+02  -1.8186500e+02  -2.3648727e+02  -2.8618976e+02  -3.3123347e+02  -3.7240099e+02  -4.1092865e+02  -4.4824761e+02  -4.8573187e+02  -5.2459009e+02  -5.6581358e+02  -6.1005382e+02  -6.5762368e+02  -7.0866921e+02  -7.6319025e+02  -8.2082925e+02  -8.8074381e+02  -9.4181874e+02  -1.0029978e+03  -1.0633913e+03  -1.1221827e+03  -1.1785401e+03  -1.2315977e+03  -1.2804641e+03  -1.3243804e+03  -1.3630537e+03  -1.3967847e+03  -1.4261755e+03  -1.4517183e+03  -1.4735882e+03  -1.4916938e+03  -1.5059636e+03  -1.5167389e+03  -1.5249134e+03  -1.5316631e+03  -1.5380854e+03  -1.5449762e+03  -1.5526891e+03  -1.5611068e+03  -1.5697813e+03  -1.5781280e+03  -1.5854139e+03  -1.5904646e+03  -1.5914159e+03  -1.5858221e+03  -1.5709402e+03  -1.5439220e+03  -1.5021254e+03  -1.4434631e+03  -1.3664549e+03  -1.2702733e+03  -1.1549306e+03  -1.0212871e+03  -8.7088346e+02  -7.0581241e+02  -5.2874413e+02  -3.4296699e+02  -1.5218178e+02   3.9880637e+01   2.2973706e+02   4.1423345e+02   5.9060038e+02   7.5648323e+02   9.0977182e+02   1.0484382e+03   1.1705581e+03   1.2744736e+03   1.3591560e+03   1.4245122e+03   1.4713204e+03   1.5010170e+03   1.5155725e+03   1.5173087e+03   1.5085937e+03   1.4916446e+03   1.4685832e+03   1.4415900e+03   1.4129656e+03   1.3850270e+03   1.3598070e+03   1.3387687e+03   1.3227156e+03   1.3117216e+03   1.3051578e+03   1.3020307e+03   1.3014049e+03   1.3025292e+03   1.3046349e+03   1.3067292e+03   1.3077021e+03   1.3066172e+03   1.3027481e+03   1.2952921e+03   1.2831573e+03   1.2651289e+03   1.2403311e+03   1.2085924e+03   1.1704525e+03   1.1269750e+03   1.0795449e+03   1.0296125e+03   9.7835992e+02   9.2631892e+02   8.7328516e+02   8.1886686e+02   7.6302671e+02   7.0593371e+02   6.4767016e+02   5.8823525e+02   5.2755862e+02   4.6559318e+02   4.0257734e+02   3.3910482e+02   2.7594269e+02   2.1391203e+02   1.5382467e+02   9.6254476e+01   4.1328324e+01  -1.1218327e+01  -6.1965394e+01  -1.1177247e+02  -1.6146229e+02  -2.1141268e+02  -2.6149337e+02  -3.1123902e+02  -3.6004553e+02  -4.0735171e+02  -4.5276111e+02  -4.9613361e+02  -5.3760277e+02  -5.7747650e+02  -6.1608685e+02  -6.5376074e+02  -6.9104455e+02  -7.2871371e+02  -7.6727429e+02  -8.0667628e+02  -8.4658615e+02  -8.8669245e+02  -9.2683271e+02  -9.6701890e+02  -1.0073465e+03  -1.0479494e+03  -1.0889895e+03  -1.1305135e+03  -1.1723562e+03  -1.2142570e+03  -1.2560319e+03  -1.2974886e+03  -1.3381861e+03  -1.3774903e+03  -1.4148529e+03  -1.4500059e+03  -1.4830254e+03  -1.5143195e+03  -1.5444733e+03  -1.5739052e+03  -1.6025824e+03  -1.6299163e+03  -1.6546653e+03  -1.6748439e+03  -1.6878127e+03  -1.6906186e+03  -1.6804878e+03  -1.6552138e+03  -1.6132296e+03  -1.5535093e+03  -1.4755964e+03  -1.3797958e+03  -1.2673655e+03  -1.1405470e+03  -1.0023906e+03  -8.5647619e+02  -7.0663908e+02  -5.5673412e+02  -4.1045910e+02  -2.7130015e+02  -1.4245383e+02  -2.6469002e+01   7.5148441e+01   1.6196502e+02   2.3429078e+02   2.9273701e+02   3.3802614e+02   3.7107322e+02   3.9293947e+02   4.0470676e+02   4.0754701e+02   4.0280606e+02   3.9198759e+02   3.7681862e+02   3.5924273e+02   3.4115323e+02   3.2413399e+02   3.0933426e+02   2.9744084e+02   2.8876970e+02   2.8338406e+02   2.8110929e+02   2.8143011e+02   2.8349010e+02   2.8624055e+02   2.8859930e+02   2.8971243e+02   2.8920282e+02   2.8699732e+02   2.8286271e+02   2.7620200e+02   2.6618539e+02   2.5198000e+02   2.3297391e+02   2.0880953e+02   1.7916576e+02   1.4367649e+02   1.0220261e+02   5.5171056e+01   3.5958715e+00  -5.1268742e+01  -1.0816747e+02  -1.6588057e+02  -2.2345544e+02  -2.8035265e+02  -3.3620375e+02  -3.9062552e+02  -4.4324261e+02  -4.9373569e+02  -5.4199946e+02  -5.8833301e+02  -6.3342175e+02  -6.7814757e+02  -7.2341814e+02  -7.7003296e+02  -8.1840825e+02  -8.6819291e+02  -9.1831585e+02  -9.6768770e+02  -1.0157929e+03  -1.0625665e+03  -1.1078361e+03  -1.1509153e+03  -1.1907153e+03  -1.2261295e+03  -1.2562741e+03  -1.2807318e+03  -1.2999120e+03  -1.3150682e+03  -1.3278508e+03  -1.3399080e+03  -1.3527025e+03  -1.3673686e+03  -1.3846227e+03  -1.4047577e+03  -1.4277201e+03  -1.4533110e+03  -1.4814202e+03  -1.5120128e+03  -1.5449093e+03  -1.5797450e+03  -1.6161109e+03  -1.6536143e+03  -1.6918006e+03  -1.7300698e+03  -1.7677063e+03  -1.8038838e+03  -1.8375939e+03  -1.8678151e+03  -1.8938543e+03  -1.9154033e+03  -1.9323126e+03  -1.9444134e+03  -1.9516070e+03  -1.9541841e+03  -1.9530742e+03  -1.9497966e+03  -1.9461589e+03  -1.9437377e+03  -1.9432863e+03  -1.9444514e+03  -1.9459286e+03  -1.9457200e+03  -1.9412562e+03  -1.9295388e+03  -1.9073867e+03  -1.8717531e+03  -1.8201449e+03  -1.7508330e+03  -1.6626547e+03  -1.5549805e+03  -1.4280618e+03  -1.2830894e+03  -1.1218711e+03  -9.4670228e+02  -7.6046869e+02  -5.6665922e+02  -3.6922801e+02  -1.7238468e+02   1.9762102e+01   2.0364945e+02   3.7651198e+02   5.3635697e+02   6.8182169e+02   8.1203421e+02   9.2648396e+02   1.0249746e+03   1.1077328e+03   1.1756298e+03   1.2302682e+03   1.2736335e+03   1.3075955e+03   1.3338298e+03   1.3540486e+03   1.3699162e+03   1.3826212e+03   1.3927685e+03   1.4007451e+03   1.4070313e+03   1.4122356e+03   1.4171144e+03   1.4225991e+03   1.4295412e+03   1.4383863e+03   1.4492784e+03   1.4622929e+03   1.4772477e+03   1.4935243e+03   1.5102761e+03   1.5264622e+03   1.5406916e+03   1.5514721e+03   1.5576715e+03   1.5587126e+03   1.5545417e+03   1.5454945e+03   1.5320139e+03   1.5143829e+03   1.4927385e+03   1.4671936e+03   1.4379022e+03   1.4052219e+03   1.3697856e+03   1.3322345e+03   1.2929258e+03   1.2519383e+03   1.2091614e+03   1.1642884e+03   1.1169441e+03   1.0669699e+03   1.0146903e+03   9.6105012e+02   9.0742990e+02   8.5534933e+02   8.0628432e+02   7.6137098e+02   7.2113551e+02   6.8546543e+02   6.5369330e+02   6.2488637e+02   5.9830158e+02   5.7363232e+02   5.5095131e+02   5.3042956e+02   5.1194895e+02   4.9486529e+02   4.7803962e+02   4.6011841e+02   4.3983586e+02   4.1616768e+02   3.8846669e+02   3.5643979e+02   3.1997805e+02   2.7918856e+02   2.3454937e+02   1.8692797e+02   1.3740753e+02   8.7015795e+01   3.6551815e+01  -1.3365898e+01  -6.2189071e+01  -1.0940079e+02  -1.5434757e+02  -1.9606982e+02  -2.3345173e+02  -2.6553086e+02  -2.9189194e+02  -3.1300131e+02  -3.3002713e+02  -3.4428606e+02  -3.5682292e+02  -3.6831120e+02  -3.7918457e+02  -3.8990386e+02  -4.0118214e+02  -4.1375743e+02  -4.2797416e+02  -4.4374023e+02  -4.6062559e+02  -4.7784714e+02  -4.9419264e+02  -5.0793162e+02  -5.1677311e+02  -5.1784386e+02  -5.0786403e+02  -4.8366438e+02  -4.4270822e+02  -3.8333786e+02  -3.0483071e+02  -2.0734174e+02  -9.1761594e+01   4.0339730e+01   1.8656949e+02   3.4355300e+02   5.0700545e+02   6.7204952e+02   8.3374680e+02   9.8778791e+02   1.1309704e+03   1.2611188e+03   1.3767110e+03   1.4767512e+03   1.5608961e+03   1.6295081e+03   1.6836515e+03   1.7251322e+03   1.7563115e+03   1.7795411e+03   1.7966284e+03   1.8087244e+03   1.8165244e+03   1.8204111e+03   1.8203391e+03   1.8157272e+03   1.8057578e+03   1.7899053e+03   1.7682065e+03   1.7412810e+03   1.7103095e+03   1.6768806e+03   1.6426690e+03   1.6091665e+03   1.5776664e+03   1.5493284e+03   1.5250372e+03   1.5051636e+03   1.4894542e+03   1.4770774e+03   1.4667706e+03   1.4570165e+03   1.4462621e+03   1.4331752e+03   1.4168125e+03   1.3966355e+03   1.3722859e+03   1.3432971e+03   1.3090797e+03   1.2689972e+03   1.2224388e+03   1.1690452e+03   1.1088667e+03   1.0422185e+03   9.6943454e+02   8.9086005e+02   8.0706814e+02   7.1912246e+02   6.2871260e+02   5.3788512e+02   4.4858942e+02   3.6252538e+02   2.8115159e+02   2.0549301e+02   1.3585788e+02   7.1777457e+01   1.2290829e+01  -4.3550677e+01  -9.6344933e+01  -1.4638659e+02  -1.9386457e+02  -2.3887925e+02  -2.8120793e+02  -3.2010471e+02  -3.5445847e+02  -3.8333593e+02  -4.0662803e+02  -4.2536036e+02  -4.4146645e+02  -4.5724597e+02  -4.7486635e+02  -4.9607826e+02  -5.2208747e+02  -5.5347526e+02  -5.9016620e+02  -6.3154087e+02  -6.7666827e+02  -7.2446627e+02  -7.7372601e+02  -8.2315816e+02  -8.7164374e+02  -9.1862909e+02  -9.6427612e+02  -1.0091771e+03  -1.0539734e+03  -1.0991666e+03  -1.1450613e+03  -1.1916687e+03  -1.2383817e+03  -1.2835265e+03  -1.3243696e+03  -1.3577406e+03  -1.3806556e+03  -1.3906194e+03  -1.3857170e+03  -1.3645151e+03  -1.3258440e+03  -1.2687601e+03  -1.1928188e+03  -1.0983299e+03  -9.8649190e+02  -8.5949974e+02  -7.2041143e+02  -5.7288113e+02  -4.2114519e+02  -2.7003568e+02  -1.2459015e+02   1.0646220e+01   1.3225410e+02   2.3823225e+02   3.2793002e+02   4.0180777e+02   4.6107543e+02   5.0727728e+02   5.4215225e+02   5.6761898e+02   5.8538134e+02   5.9649734e+02   6.0141982e+02   6.0026829e+02   5.9310042e+02   5.8017478e+02   5.6208642e+02   5.3976062e+02   5.1442747e+02   4.8755637e+02   4.6064104e+02   4.3500197e+02   4.1188734e+02   3.9259058e+02   3.7811274e+02   3.6874363e+02   3.6415643e+02   3.6375352e+02   3.6684195e+02   3.7262054e+02   3.7993379e+02   3.8701771e+02   3.9175121e+02   3.9228480e+02   3.8742571e+02   3.7665908e+02   3.6000023e+02   3.3772156e+02   3.1005390e+02   2.7694117e+02   2.3801799e+02   1.9296353e+02   1.4188202e+02   8.5446132e+01   2.4961797e+01  -3.7703166e+01  -1.0046996e+02  -1.6145413e+02  -2.1921772e+02  -2.7287892e+02  -3.2203183e+02  -3.6650246e+02  -4.0620136e+02  -4.4131796e+02  -4.7263727e+02  -5.0145036e+02  -5.2917137e+02  -5.5712100e+02  -5.8637953e+02  -6.1764359e+02  -6.5125029e+02  -6.8716628e+02  -7.2483148e+02  -7.6317406e+02  -8.0081966e+02  -8.3620518e+02  -8.6763278e+02  -8.9352352e+02  -9.1290817e+02  -9.2577825e+02  -9.3290252e+02  -9.3548049e+02  -9.3518894e+02  -9.3420501e+02  -9.3470688e+02  -9.3823463e+02  -9.4541740e+02  -9.5604363e+02  -9.6928269e+02  -9.8408706e+02  -9.9963526e+02  -1.0154879e+03  -1.0314773e+03  -1.0476674e+03  -1.0644616e+03  -1.0824721e+03  -1.1020704e+03  -1.1231235e+03  -1.1451680e+03  -1.1677749e+03  -1.1907531e+03  -1.2139858e+03  -1.2370948e+03  -1.2593031e+03  -1.2794670e+03  -1.2960710e+03  -1.3071676e+03  -1.3102502e+03  -1.3022421e+03  -1.2798883e+03  -1.2403247e+03  -1.1814689e+03  -1.1022613e+03  -1.0027501e+03  -8.8385156e+02  -7.4705465e+02  -5.9445540e+02  -4.2886937e+02  -2.5373016e+02  -7.2969344e+01   1.0900930e+02   2.8744760e+02   4.5770624e+02   6.1598210e+02   7.5968505e+02   8.8731988e+02   9.9826970e+02   1.0926065e+03   1.1708465e+03   1.2337954e+03   1.2825307e+03   1.3183432e+03   1.3426849e+03   1.3571620e+03   1.3633999e+03   1.3628363e+03   1.3566751e+03   1.3460051e+03   1.3319173e+03   1.3155166e+03   1.2978766e+03   1.2800128e+03   1.2628361e+03   1.2471408e+03   1.2336082e+03   1.2226397e+03   1.2141081e+03   1.2073379e+03   1.2013378e+03   1.1949720e+03   1.1870456e+03   1.1765563e+03   1.1628977e+03   1.1457123e+03   1.1247007e+03   1.0997258e+03   1.0708851e+03   1.0382838e+03   1.0019051e+03   9.6171718e+02   9.1781068e+02   8.7057241e+02   8.2075791e+02   7.6934990e+02   7.1736293e+02   6.6564293e+02   6.1474038e+02   5.6510354e+02   5.1735844e+02   4.7211806e+02   4.2948681e+02   3.8891522e+02   3.4960212e+02   3.1104743e+02   2.7317641e+02   2.3594487e+02   1.9903674e+02   1.6209909e+02   1.2513599e+02   8.8579561e+01   5.3025215e+01   1.8828511e+01  -1.4148580e+01  -4.6425370e+01  -7.8530141e+01  -1.1078302e+02  -1.4335769e+02  -1.7616619e+02  -2.0861892e+02  -2.3993390e+02  -2.6977414e+02  -2.9835609e+02  -3.2602601e+02  -3.5290762e+02  -3.7893527e+02  -4.0406870e+02  -4.2826921e+02  -4.5130895e+02  -4.7284986e+02  -4.9266880e+02  -5.1062002e+02  -5.2655461e+02  -5.4054562e+02  -5.5319506e+02  -5.6564196e+02  -5.7915992e+02  -5.9459012e+02  -6.1213440e+02  -6.3169944e+02  -6.5332511e+02  -6.7717570e+02  -7.0308720e+02  -7.3020017e+02  -7.5697130e+02  -7.8126638e+02  -8.0053320e+02  -8.1210125e+02  -8.1328458e+02  -8.0144071e+02  -7.7426187e+02  -7.3011380e+02  -6.6830176e+02  -5.8916622e+02  -4.9392191e+02  -3.8443534e+02  -2.6308503e+02  -1.3268853e+02   3.5897908e+00   1.4240490e+02   2.8032390e+02   4.1375869e+02   5.3893343e+02   6.5219172e+02   7.5056684e+02   8.3217462e+02   8.9626325e+02   9.4302389e+02   9.7324189e+02   9.8789020e+02   9.8793851e+02   9.7455075e+02   9.4930517e+02   9.1411309e+02   8.7109384e+02   8.2257537e+02   7.7103452e+02   7.1885439e+02   6.6800748e+02   6.1988089e+02   5.7525925e+02   5.3445320e+02   4.9758995e+02   4.6478543e+02   4.3599573e+02   4.1075630e+02   3.8811590e+02   3.6682744e+02   3.4557102e+02   3.2309102e+02   2.9840728e+02   2.7107580e+02   2.4118905e+02   2.0899917e+02   1.7449709e+02   1.3736581e+02   9.7266519e+01   5.4103140e+01   8.1259387e+00  -4.0112346e+01  -9.0001401e+01  -1.4116804e+02  -1.9356434e+02  -2.4736130e+02  -3.0274287e+02  -3.5965495e+02  -4.1769755e+02  -4.7624022e+02  -5.3450501e+02  -5.9159469e+02  -6.4664863e+02  -6.9894696e+02  -7.4784254e+02  -7.9265147e+02  -8.3262242e+02  -8.6713816e+02  -8.9598528e+02  -9.1927198e+02  -9.3717099e+02  -9.5006369e+02  -9.5892600e+02  -9.6528491e+02  -9.7080823e+02  -9.7716723e+02  -9.8618850e+02  -9.9972975e+02  -1.0192251e+03  -1.0453857e+03  -1.0782884e+03  -1.1175715e+03  -1.1624171e+03  -1.2114859e+03  -1.2630294e+03  -1.3150809e+03  -1.3657292e+03  -1.4135290e+03  -1.4577184e+03  -1.4980325e+03  -1.5345287e+03  -1.5677056e+03  -1.5985645e+03  -1.6281575e+03  -1.6568300e+03  -1.6840061e+03  -1.7087804e+03  -1.7306213e+03  -1.7495847e+03  -1.7661327e+03  -1.7808677e+03  -1.7942964e+03  -1.8066390e+03  -1.8175658e+03  -1.8258690e+03  -1.8293850e+03  -1.8252589e+03  -1.8103633e+03  -1.7817301e+03  -1.7369060e+03  -1.6741259e+03  -1.5923133e+03  -1.4912075e+03  -1.3716604e+03  -1.2356568e+03  -1.0860271e+03  -9.2619239e+02  -7.5997768e+02  -5.9148295e+02  -4.2490132e+02  -2.6408490e+02  -1.1224998e+02   2.7926713e+01   1.5425549e+02   2.6505005e+02   3.5914203e+02   4.3619893e+02   4.9699695e+02   5.4316319e+02   5.7675002e+02   5.9994153e+02   6.1485240e+02   6.2358582e+02   6.2841298e+02   6.3164568e+02   6.3521680e+02   6.4031482e+02   6.4742432e+02   6.5674074e+02   6.6842641e+02   6.8254313e+02   6.9896701e+02   7.1729071e+02   7.3668624e+02   7.5599213e+02   7.7403632e+02   7.8982590e+02   8.0247625e+02   8.1125222e+02   8.1588158e+02   8.1674292e+02   8.1458394e+02   8.1000404e+02   8.0321524e+02   7.9411996e+02   7.8238159e+02   7.6747872e+02   7.4894439e+02   7.2667011e+02   7.0091299e+02   6.7203161e+02   6.4043239e+02   6.0670832e+02   5.7148288e+02   5.3510639e+02   4.9767470e+02   4.5930168e+02   4.2008433e+02   3.7973181e+02   3.3757715e+02   2.9297060e+02   2.4558712e+02   1.9560157e+02   1.4368028e+02   9.0904660e+01   3.8664431e+01  -1.1738861e+01  -5.9515343e+01  -1.0432527e+02  -1.4584781e+02  -1.8351861e+02  -2.1667545e+02  -2.4486398e+02  -2.6807177e+02  -2.8688025e+02  -3.0235419e+02  -3.1562470e+02  -3.2770462e+02  -3.3974936e+02  -3.5311116e+02  -3.6884443e+02  -3.8735990e+02
  -3.0126077e+03  -3.0052983e+03  -2.9941214e+03  -2.9778279e+03  -2.9544249e+03  -2.9210497e+03  -2.8739396e+03  -2.8086775e+03  -2.7206649e+03  -2.6053655e+03  -2.4582660e+03  -2.2751490e+03  -2.0528718e+03  -1.7901787e+03  -1.4882194e+03  -1.1506874e+03  -7.8354409e+02  -3.9455739e+02   7.1595380e+00   4.1170542e+02   8.0906397e+02   1.1896801e+03   1.5448067e+03   1.8667108e+03   2.1490023e+03   2.3872740e+03   2.5796072e+03   2.7263845e+03   2.8297923e+03   2.8935902e+03   2.9229789e+03   2.9243356e+03   2.9048672e+03   2.8720689e+03   2.8330078e+03   2.7937533e+03   2.7590848e+03   2.7324370e+03   2.7160828e+03   2.7114474e+03   2.7192743e+03   2.7393796e+03   2.7703250e+03   2.8094996e+03   2.8533693e+03   2.8976269e+03   2.9375309e+03   2.9685290e+03   2.9867445e+03   2.9891381e+03   2.9737000e+03   2.9397529e+03   2.8879685e+03   2.8199998e+03   2.7381191e+03   2.6450511e+03   2.5436712e+03   2.4366306e+03   2.3264075e+03   2.2154286e+03   2.1056987e+03   1.9985112e+03   1.8947350e+03   1.7950549e+03   1.6997341e+03   1.6083737e+03   1.5201596e+03   1.4344455e+03   1.3510780e+03   1.2702386e+03   1.1921075e+03   1.1165526e+03   1.0430950e+03   9.7122502e+02   9.0061049e+02   8.3102623e+02   7.6223380e+02   6.9390690e+02   6.2569230e+02   5.5749572e+02   4.8971469e+02   4.2302995e+02   3.5790559e+02   2.9424020e+02   2.3136304e+02   1.6834750e+02   1.0442185e+02   3.9181071e+01  -2.7442875e+01  -9.5286095e+01  -1.6410071e+02  -2.3370050e+02  -3.0391236e+02  -3.7438205e+02  -4.4450173e+02  -5.1359245e+02  -5.8116387e+02  -6.4698426e+02  -7.1106468e+02  -7.7369203e+02  -8.3536874e+02  -8.9666888e+02  -9.5807588e+02  -1.0197329e+03  -1.0812657e+03  -1.1419730e+03  -1.2011712e+03  -1.2582196e+03  -1.3123749e+03  -1.3628224e+03  -1.4088160e+03  -1.4498654e+03  -1.4859167e+03  -1.5172874e+03  -1.5442410e+03  -1.5664236e+03  -1.5824914e+03  -1.5898376e+03  -1.5842276e+03  -1.5597389e+03  -1.5094152e+03  -1.4262666e+03  -1.3041315e+03  -1.1384144e+03  -9.2677523e+02  -6.6970156e+02  -3.7073705e+02  -3.6182596e+01   3.2537717e+02   7.0345673e+02   1.0863354e+03   1.4620420e+03   1.8191789e+03   2.1474846e+03   2.4383002e+03   2.6849708e+03   2.8830953e+03   3.0306476e+03   3.1282460e+03   3.1794025e+03   3.1902233e+03   3.1686030e+03   3.1232147e+03   3.0625227e+03   2.9942214e+03   2.9252454e+03   2.8618943e+03   2.8096491e+03   2.7727920e+03   2.7541636e+03   2.7551670e+03   2.7758550e+03   2.8149384e+03   2.8697872e+03   2.9366165e+03   3.0109652e+03   3.0883463e+03   3.1646854e+03   3.2364023e+03   3.3004743e+03   3.3546150e+03   3.3972135e+03   3.4269968e+03   3.4428673e+03   3.4439931e+03   3.4298139e+03   3.4000108e+03   3.3545483e+03   3.2936555e+03   3.2178287e+03   3.1278932e+03   3.0249692e+03   2.9104654e+03   2.7862652e+03   2.6549569e+03   2.5197918e+03   2.3842886e+03   2.2518607e+03   2.1256152e+03   2.0080898e+03   1.9010462e+03   1.8055658e+03   1.7221917e+03   1.6507285e+03   1.5899275e+03   1.5375653e+03   1.4908666e+03   1.4468962e+03   1.4027378e+03   1.3554556e+03   1.3020682e+03   1.2397733e+03   1.1662315e+03   1.0796533e+03   9.7896992e+02   8.6421802e+02   7.3653629e+02   5.9779839e+02   4.5049259e+02   2.9754873e+02   1.4183301e+02  -1.4233975e+01  -1.6873334e+02  -3.2010632e+02  -4.6700202e+02  -6.0835883e+02  -7.4356254e+02  -8.7228393e+02  -9.9417825e+02  -1.1088453e+03  -1.2160808e+03  -1.3162911e+03  -1.4106890e+03  -1.5009363e+03  -1.5885197e+03  -1.6743791e+03  -1.7589153e+03  -1.8421753e+03  -1.9240420e+03  -2.0042250e+03  -2.0820382e+03  -2.1564311e+03  -2.2263045e+03  -2.2906153e+03  -2.3484266e+03  -2.3992878e+03  -2.4435692e+03  -2.4822812e+03  -2.5165605e+03  -2.5470727e+03  -2.5733487e+03  -2.5933246e+03  -2.6032763e+03  -2.5979631e+03  -2.5709248e+03  -2.5150202e+03  -2.4231640e+03  -2.2892185e+03  -2.1088585e+03  -1.8800717e+03  -1.6033087e+03  -1.2815163e+03  -9.2005654e+02  -5.2647167e+02  -1.1011463e+02   3.1830122e+02   7.4719868e+02   1.1647465e+03   1.5596055e+03   1.9217286e+03   2.2430382e+03   2.5177258e+03   2.7421987e+03   2.9150324e+03   3.0370671e+03   3.1114984e+03   3.1437116e+03   3.1406979e+03   3.1102776e+03   3.0603837e+03   2.9985074e+03   2.9314247e+03   2.8650033e+03   2.8039553e+03   2.7516564e+03   2.7099674e+03   2.6792585e+03   2.6588490e+03   2.6475009e+03   2.6435255e+03   2.6445970e+03   2.6478318e+03   2.6502367e+03   2.6490315e+03   2.6416708e+03   2.6257963e+03   2.5993288e+03   2.5607026e+03   2.5090690e+03   2.4442265e+03   2.3662860e+03   2.2755475e+03   2.1727222e+03   2.0590489e+03   1.9362273e+03   1.8063152e+03   1.6714774e+03   1.5337109e+03   1.3948096e+03   1.2564140e+03   1.1199944e+03   9.8692264e+02   8.5854236e+02   7.3603505e+02   6.2018649e+02   5.1110636e+02   4.0806481e+02   3.0978155e+02   2.1500695e+02   1.2292285e+02   3.3157746e+01  -5.4461947e+01  -1.4012541e+02  -2.2403440e+02  -3.0623983e+02  -3.8655138e+02  -4.6470105e+02  -5.4056491e+02  -6.1416482e+02  -6.8563185e+02  -7.5536029e+02  -8.2407877e+02  -8.9264195e+02  -9.6180161e+02  -1.0321939e+03  -1.1044713e+03  -1.1793079e+03  -1.2572062e+03  -1.3384006e+03  -1.4229482e+03  -1.5107851e+03  -1.6017979e+03  -1.6958995e+03  -1.7927898e+03  -1.8916474e+03  -1.9913120e+03  -2.0906521e+03  -2.1885871e+03  -2.2839993e+03  -2.3758233e+03  -2.4632254e+03  -2.5457015e+03  -2.6230158e+03  -2.6950669e+03  -2.7617281e+03  -2.8225357e+03  -2.8761914e+03  -2.9201997e+03  -2.9507671e+03  -2.9628169e+03  -2.9503082e+03  -2.9069004e+03  -2.8265994e+03  -2.7042486e+03  -2.5360247e+03  -2.3199973e+03  -2.0565951e+03  -1.7488551e+03  -1.4025024e+03  -1.0258620e+03  -6.2953497e+02  -2.2576407e+02   1.7256810e+02   5.5306263e+02   9.0464611e+02   1.2181132e+03   1.4864398e+03   1.7048463e+03   1.8710034e+03   1.9854172e+03   2.0512362e+03   2.0734273e+03   2.0581325e+03   2.0124225e+03   1.9439350e+03   1.8602726e+03   1.7685047e+03   1.6748372e+03   1.5844105e+03   1.5012346e+03   1.4281312e+03   1.3666098e+03   1.3168173e+03   1.2777176e+03   1.2473454e+03   1.2230862e+03   1.2021592e+03   1.1819169e+03   1.1597087e+03   1.1329351e+03   1.0994943e+03   1.0579999e+03   1.0075455e+03   9.4744359e+02   8.7725483e+02   7.9690748e+02   7.0657856e+02   6.0652651e+02   4.9717454e+02   3.7926494e+02   2.5390852e+02   1.2254798e+02  -1.3201166e+01  -1.5161235e+02  -2.9069316e+02  -4.2831204e+02  -5.6265913e+02  -6.9236905e+02  -8.1623897e+02  -9.3299109e+02  -1.0412930e+03  -1.1400921e+03  -1.2291086e+03  -1.3091132e+03  -1.3816213e+03  -1.4482586e+03  -1.5104721e+03  -1.5694308e+03  -1.6257930e+03  -1.6797883e+03  -1.7316581e+03  -1.7819440e+03  -1.8315078e+03  -1.8814203e+03  -1.9327664e+03  -1.9864142e+03  -2.0428231e+03  -2.1019076e+03  -2.1630118e+03  -2.2251261e+03  -2.2872194e+03  -2.3483880e+03  -2.4078054e+03  -2.4647570e+03  -2.5187701e+03  -2.5696171e+03  -2.6173664e+03  -2.6625776e+03  -2.7061985e+03  -2.7491336e+03  -2.7921089e+03  -2.8358463e+03  -2.8810208e+03  -2.9280317e+03  -2.9768903e+03  -3.0272978e+03  -3.0788022e+03  -3.1307948e+03  -3.1823285e+03  -3.2320853e+03  -3.2786333e+03  -3.3206697e+03  -3.3571512e+03  -3.3875852e+03  -3.4123177e+03  -3.4323202e+03  -3.4486171e+03  -3.4618453e+03  -3.4719722e+03  -3.4780724e+03  -3.4782059e+03  -3.4692324e+03  -3.4465541e+03  -3.4042066e+03  -3.3353066e+03  -3.2325759e+03  -3.0892268e+03  -2.9002477e+03  -2.6632292e+03  -2.3783995e+03  -2.0485489e+03  -1.6791463e+03  -1.2783037e+03  -8.5633774e+02  -4.2508070e+02   2.8323302e+00   4.1493218e+02   8.0006548e+02   1.1491198e+03   1.4553455e+03   1.7146203e+03   1.9254732e+03   2.0886802e+03   2.2067776e+03   2.2838339e+03   2.3253120e+03   2.3377595e+03   2.3283572e+03   2.3043979e+03   2.2726963e+03   2.2390905e+03   2.2081371e+03   2.1829439e+03   2.1651919e+03   2.1553499e+03   2.1529139e+03   2.1564404e+03   2.1634962e+03   2.1709851e+03   2.1757198e+03   2.1747377e+03   2.1654080e+03   2.1456499e+03   2.1141780e+03   2.0704931e+03   2.0146843e+03   1.9472686e+03   1.8691270e+03   1.7815034e+03   1.6859213e+03   1.5838908e+03   1.4765630e+03   1.3646588e+03   1.2488340e+03   1.1301902e+03   1.0103505e+03   8.9111869e+02   7.7426416e+02   6.6141216e+02   5.5383873e+02   4.5242630e+02   3.5778432e+02   2.7016284e+02   1.8924842e+02   1.1431597e+02   4.4666977e+01  -2.0201421e+01  -8.0822616e+01  -1.3801765e+02  -1.9296570e+02  -2.4707736e+02  -3.0172487e+02  -3.5812012e+02  -4.1739762e+02  -4.8044599e+02  -5.4742281e+02  -6.1759832e+02  -6.8989636e+02  -7.6353522e+02  -8.3809766e+02  -9.1327816e+02  -9.8874783e+02  -1.0640796e+03  -1.1387466e+03  -1.2122420e+03  -1.2840204e+03  -1.3532501e+03  -1.4188548e+03  -1.4799760e+03  -1.5362991e+03  -1.5878365e+03  -1.6346281e+03  -1.6768548e+03  -1.7150122e+03  -1.7496882e+03  -1.7811884e+03  -1.8095289e+03  -1.8347605e+03  -1.8571310e+03  -1.8770364e+03  -1.8950553e+03  -1.9120189e+03  -1.9289896e+03  -1.9472051e+03  -1.9678570e+03  -1.9915865e+03  -2.0181870e+03  -2.0469288e+03  -2.0771131e+03  -2.1082928e+03  -2.1400506e+03  -2.1717709e+03  -2.2026805e+03  -2.2317686e+03  -2.2574703e+03  -2.2775088e+03  -2.2888736e+03  -2.2876162e+03  -2.2686327e+03  -2.2257999e+03  -2.1523834e+03  -2.0414804e+03  -1.8866561e+03  -1.6829946e+03  -1.4282298e+03  -1.1233576e+03  -7.7262392e+02  -3.8320162e+02   3.5205870e+01   4.7081149e+02   9.1041845e+02   1.3402647e+03   1.7468875e+03   2.1182189e+03   2.4447131e+03   2.7199292e+03   2.9405510e+03   3.1062037e+03   3.2192402e+03   3.2843013e+03   3.3076744e+03   3.2969086e+03   3.2605180e+03   3.2073021e+03   3.1455782e+03   3.0827102e+03   3.0247409e+03   2.9759746e+03   2.9388400e+03   2.9142453e+03   2.9020469e+03   2.9013226e+03   2.9104005e+03   2.9266771e+03   2.9466074e+03   2.9661090e+03   2.9810610e+03   2.9877268e+03   2.9830665e+03   2.9647974e+03   2.9313963e+03   2.8822628e+03   2.8177934e+03   2.7391253e+03   2.6477807e+03   2.5454169e+03   2.4337158e+03   2.3144489e+03   2.1894108e+03   2.0600870e+03   1.9275059e+03   1.7924949e+03   1.6560719e+03   1.5196812e+03   1.3851255e+03   1.2542568e+03   1.1286992e+03   1.0097604e+03   8.9833422e+02   7.9465231e+02   6.9818226e+02   6.0793029e+02   5.2285366e+02   4.4200423e+02   3.6436259e+02   2.8861385e+02   2.1329660e+02   1.3729337e+02   6.0125698e+01  -1.8114472e+01  -9.6906463e+01  -1.7537007e+02  -2.5244409e+02  -3.2725560e+02  -3.9943743e+02  -4.6914770e+02  -5.3675475e+02  -6.0245269e+02  -6.6620748e+02  -7.2803950e+02  -7.8829416e+02  -8.4765683e+02  -9.0693232e+02  -9.6684980e+02  -1.0279908e+03  -1.0906012e+03  -1.1544476e+03  -1.2191232e+03  -1.2844669e+03  -1.3505752e+03  -1.4175496e+03  -1.4852761e+03  -1.5532914e+03  -1.6207965e+03  -1.6868392e+03  -1.7504986e+03  -1.8109396e+03  -1.8674608e+03  -1.9194633e+03  -1.9661773e+03  -2.0066200e+03  -2.0400420e+03  -2.0663114e+03  -2.0858736e+03  -2.0994609e+03  -2.1078729e+03  -2.1119529e+03  -2.1126286e+03  -2.1109140e+03  -2.1077340e+03  -2.1034285e+03  -2.0972217e+03  -2.0870768e+03  -2.0697527e+03  -2.0407458e+03  -1.9943249e+03  -1.9239861e+03  -1.8233159e+03  -1.6869349e+03  -1.5111572e+03  -1.2943063e+03  -1.0369447e+03  -7.4208358e+02  -4.1518719e+02  -6.3914044e+01   3.0232799e+02   6.7294753e+02   1.0368051e+03   1.3828358e+03   1.7007207e+03   1.9816667e+03   2.2189996e+03   2.4084015e+03   2.5480224e+03   2.6385876e+03   2.6834021e+03   2.6880118e+03   2.6594172e+03   2.6053406e+03   2.5339662e+03   2.4536450e+03   2.3721302e+03   2.2959142e+03   2.2300678e+03   2.1781575e+03   2.1421012e+03   2.1222920e+03   2.1180160e+03   2.1277465e+03   2.1490339e+03   2.1784000e+03   2.2117118e+03   2.2448078e+03   2.2739391e+03   2.2958484e+03   2.3076369e+03   2.3066448e+03   2.2904022e+03   2.2567718e+03   2.2043380e+03   2.1328333e+03   2.0433235e+03   1.9378888e+03   1.8190455e+03   1.6895629e+03   1.5526845e+03   1.4122370e+03   1.2723866e+03   1.1371526e+03   1.0099802e+03   8.9352570e+02   7.8950759e+02   6.9858139e+02   6.2037987e+02   5.5372619e+02   4.9694346e+02   4.4819392e+02   4.0567601e+02   3.6758956e+02   3.3199416e+02   2.9674160e+02   2.5957447e+02   2.1838767e+02   1.7148923e+02   1.1755395e+02   5.5388402e+01  -1.5986149e+01  -9.6931672e+01  -1.8700131e+02  -2.8504351e+02  -3.8936731e+02  -4.9813136e+02  -6.0979924e+02  -7.2321541e+02  -8.3745499e+02  -9.5166802e+02  -1.0649091e+03  -1.1760845e+03  -1.2839869e+03  -1.3872539e+03  -1.4843178e+03  -1.5734798e+03  -1.6532496e+03  -1.7227566e+03  -1.7818444e+03  -1.8309570e+03  -1.8710116e+03  -1.9032635e+03  -1.9291755e+03  -1.9502252e+03  -1.9677362e+03  -1.9828972e+03  -1.9969061e+03  -2.0110197e+03  -2.0263285e+03  -2.0434049e+03  -2.0622363e+03  -2.0824237e+03  -2.1031682e+03  -2.1228819e+03  -2.1387902e+03  -2.1468654e+03  -2.1420358e+03  -2.1185195e+03  -2.0701756e+03  -1.9907929e+03  -1.8745970e+03  -1.7171330e+03  -1.5160496e+03  -1.2714995e+03  -9.8636663e+02  -6.6634335e+02  -3.1972039e+02   4.3082757e+01   4.1028648e+02   7.6968496e+02   1.1094382e+03   1.4187986e+03   1.6888697e+03   1.9131852e+03   2.0879913e+03   2.2122893e+03   2.2876876e+03   2.3180926e+03   2.3092510e+03   2.2681941e+03   2.2026959e+03   2.1207608e+03   2.0300965e+03   1.9376505e+03   1.8493585e+03   1.7700575e+03   1.7032887e+03   1.6510366e+03   1.6137730e+03   1.5907936e+03   1.5804368e+03   1.5800555e+03   1.5860266e+03   1.5940339e+03   1.5996316e+03   1.5990180e+03   1.5896304e+03   1.5700018e+03   1.5391546e+03   1.4963563e+03   1.4412411e+03   1.3738507e+03   1.2946421e+03   1.2044781e+03   1.1044113e+03   9.9545585e+02   8.7863206e+02   7.5515874e+02   6.2652518e+02   4.9438560e+02   3.6047621e+02   2.2665425e+02   9.4937226e+01  -3.2526392e+01  -1.5364323e+02  -2.6675050e+02  -3.7080793e+02  -4.6520661e+02  -5.4963495e+02  -6.2421319e+02  -6.8956099e+02  -7.4665074e+02  -7.9667870e+02  -8.4110843e+02  -8.8185015e+02  -9.2139002e+02  -9.6246381e+02  -1.0074069e+03  -1.0578239e+03  -1.1145554e+03  -1.1776635e+03  -1.2464822e+03  -1.3197803e+03  -1.3961322e+03  -1.4743405e+03  -1.5534508e+03  -1.6323717e+03  -1.7097184e+03  -1.7840941e+03  -1.8543309e+03  -1.9195048e+03  -1.9789265e+03  -2.0321074e+03  -2.0786667e+03  -2.1183265e+03  -2.1510659e+03  -2.1773299e+03  -2.1980918e+03  -2.2147008e+03  -2.2286580e+03  -2.2414753e+03  -2.2546289e+03  -2.2694830e+03  -2.2871752e+03  -2.3085062e+03  -2.3338563e+03  -2.3631984e+03  -2.3959326e+03  -2.4305795e+03  -2.4649259e+03  -2.4964332e+03  -2.5223455e+03  -2.5395689e+03  -2.5444089e+03  -2.5322334e+03  -2.4974520e+03  -2.4339721e+03  -2.3358697e+03  -2.1980961e+03  -2.0172315e+03  -1.7922419e+03  -1.5250218e+03  -1.2204158e+03  -8.8568267e+02  -5.2977768e+02  -1.6279951e+02   2.0443876e+02   5.6099131e+02   8.9653222e+02   1.2020409e+03   1.4702498e+03   1.6958317e+03   1.8755990e+03   2.0087499e+03   2.0967357e+03   2.1428353e+03   2.1517704e+03   2.1293343e+03   2.0821104e+03   2.0171950e+03   1.9416551e+03   1.8619401e+03   1.7836399e+03   1.7115231e+03   1.6494415e+03   1.6000208e+03   1.5644287e+03   1.5423736e+03   1.5324277e+03   1.5326007e+03   1.5407565e+03   1.5545996e+03   1.5714176e+03   1.5880292e+03   1.6010756e+03   1.6074150e+03   1.6045496e+03   1.5909518e+03   1.5659926e+03   1.5296693e+03   1.4824671e+03   1.4252450e+03   1.3590319e+03   1.2848571e+03   1.2037321e+03   1.1166921e+03   1.0247470e+03   9.2886331e+02   8.3008841e+02   7.2953539e+02   6.2818690e+02   5.2686757e+02   4.2629092e+02   3.2701225e+02   2.2955259e+02   1.3463155e+02   4.3094603e+01  -4.4350905e+01  -1.2724363e+02  -2.0539410e+02  -2.7887059e+02  -3.4784782e+02  -4.1251907e+02  -4.7321664e+02  -5.3050923e+02  -5.8506039e+02  -6.3734226e+02  -6.8756589e+02  -7.3589132e+02  -7.8248867e+02  -8.2732158e+02  -8.6997991e+02  -9.0978503e+02  -9.4605449e+02  -9.7826211e+02  -1.0058368e+03  -1.0276191e+03  -1.0414383e+03  -1.0440242e+03  -1.0311840e+03  -9.9837836e+02  -9.4150799e+02  -8.5737326e+02  -7.4370048e+02  -5.9919328e+02  -4.2396808e+02  -2.2003640e+02   8.5994042e+00   2.5625512e+02   5.1610538e+02   7.8057265e+02   1.0415874e+03   1.2911099e+03   1.5217519e+03
  -5.8684598e+02  -6.0666890e+02  -6.2481994e+02  -6.3696848e+02  -6.3785214e+02  -6.2232962e+02  -5.8615689e+02  -5.2636017e+02  -4.4158458e+02  -3.3249034e+02  -2.0178443e+02  -5.3759462e+01   1.0633844e+02   2.7295653e+02   4.4074696e+02   6.0475088e+02   7.6041879e+02   9.0361561e+02   1.0306469e+03   1.1384403e+03   1.2248767e+03   1.2890081e+03   1.3308723e+03   1.3511591e+03   1.3511822e+03   1.3329807e+03   1.2992650e+03   1.2531808e+03   1.1978621e+03   1.1360304e+03   1.0699647e+03   1.0016862e+03   9.3297030e+02   8.6519290e+02   7.9938658e+02   7.3654238e+02   6.7765421e+02   6.2330067e+02   5.7340520e+02   5.2771138e+02   4.8649351e+02   4.5066611e+02   4.2113131e+02   3.9802791e+02   3.8065237e+02   3.6791272e+02   3.5849837e+02   3.5062379e+02   3.4195080e+02   3.3001419e+02   3.1282090e+02   2.8913124e+02   2.5842365e+02   2.2084198e+02   1.7706836e+02   1.2795298e+02   7.4178927e+01   1.6295394e+01  -4.4996318e+01  -1.0860006e+02  -1.7301211e+02  -2.3654279e+02  -2.9756752e+02  -3.5468843e+02  -4.0682071e+02  -4.5310614e+02  -4.9268318e+02  -5.2460128e+02  -5.4804964e+02  -5.6266090e+02  -5.6854227e+02  -5.6619907e+02  -5.5670250e+02  -5.4187564e+02  -5.2401373e+02  -5.0518390e+02  -4.8681473e+02  -4.6995625e+02  -4.5560240e+02  -4.4463874e+02  -4.3766297e+02  -4.3487548e+02  -4.3612615e+02  -4.4110224e+02  -4.4951581e+02  -4.6112803e+02  -4.7559378e+02  -4.9247588e+02  -5.1151246e+02  -5.3279704e+02  -5.5670229e+02  -5.8352499e+02  -6.1308435e+02  -6.4466713e+02  -6.7715641e+02  -7.0884314e+02  -7.3694695e+02  -7.5746358e+02  -7.6576769e+02  -7.5749138e+02  -7.2900594e+02  -6.7755916e+02  -6.0138451e+02  -4.9990664e+02  -3.7398292e+02  -2.2608740e+02  -6.0395460e+01   1.1737991e+02   3.0049959e+02   4.8186964e+02   6.5463461e+02   8.1267764e+02   9.5103693e+02   1.0661166e+03   1.1555720e+03   1.2180348e+03   1.2531087e+03   1.2615703e+03   1.2452741e+03   1.2067856e+03   1.1491507e+03   1.0758829e+03   9.9100528e+02   8.9900724e+02   8.0451042e+02   7.1161460e+02   6.2337917e+02   5.4184876e+02   4.6845510e+02   4.0440448e+02   3.5080931e+02   3.0846248e+02   2.7747513e+02   2.5732222e+02   2.4725201e+02   2.4635781e+02   2.5325492e+02   2.6585442e+02   2.8139788e+02   2.9674572e+02   3.0885301e+02   3.1514720e+02   3.1359826e+02   3.0273605e+02   2.8187036e+02   2.5120006e+02   2.1154263e+02   1.6400647e+02   1.0997809e+02   5.1212009e+01  -1.0451914e+01  -7.3554503e+01  -1.3708088e+02  -2.0009196e+02  -2.6139559e+02  -3.1967314e+02  -3.7389573e+02  -4.2353549e+02  -4.6859547e+02  -5.0967219e+02  -5.4784500e+02  -5.8430549e+02  -6.1993509e+02  -6.5493872e+02  -6.8873150e+02  -7.2026535e+02  -7.4852060e+02  -7.7271054e+02  -7.9223325e+02  -8.0682693e+02  -8.1685412e+02  -8.2324262e+02  -8.2731423e+02  -8.3075163e+02  -8.3524881e+02  -8.4197724e+02  -8.5161555e+02  -8.6474329e+02  -8.8188276e+02  -9.0319024e+02  -9.2817584e+02  -9.5566855e+02  -9.8406493e+02  -1.0117621e+03  -1.0374787e+03  -1.0601394e+03  -1.0786035e+03  -1.0917911e+03  -1.0990245e+03  -1.1000319e+03  -1.0945006e+03  -1.0815201e+03  -1.0594244e+03  -1.0263398e+03  -9.8098977e+02  -9.2296504e+02  -8.5254294e+02  -7.7063766e+02  -6.7886346e+02  -5.7935224e+02  -4.7433045e+02  -3.6582576e+02  -2.5578535e+02  -1.4642861e+02  -4.0297658e+01   6.0130575e+01   1.5281621e+02   2.3628046e+02   3.0960861e+02   3.7236968e+02   4.2439233e+02   4.6548202e+02   4.9543747e+02   5.1449892e+02   5.2371157e+02   5.2478465e+02   5.1966035e+02   5.1012013e+02   4.9766282e+02   4.8366697e+02   4.6948438e+02   4.5637028e+02   4.4536518e+02   4.3710501e+02   4.3177987e+02   4.2938598e+02   4.2984786e+02   4.3266897e+02   4.3662046e+02   4.4010410e+02   4.4181147e+02   4.4094081e+02   4.3702827e+02   4.2987169e+02   4.1961892e+02   4.0673651e+02   3.9172964e+02   3.7480360e+02   3.5573577e+02   3.3402285e+02   3.0911426e+02   2.8062134e+02   2.4849068e+02   2.1298357e+02   1.7449940e+02   1.3355215e+02   9.0781107e+01   4.6687496e+01   1.4559454e+00  -4.4813944e+01  -9.1799013e+01  -1.3882949e+02  -1.8496993e+02  -2.2925538e+02  -2.7087364e+02  -3.0922279e+02  -3.4402944e+02  -3.7546991e+02  -4.0400086e+02  -4.2994792e+02  -4.5319132e+02  -4.7318172e+02  -4.8932334e+02  -5.0148753e+02  -5.1017024e+02  -5.1617310e+02  -5.2033475e+02  -5.2357348e+02  -5.2686932e+02  -5.3099179e+02  -5.3630948e+02  -5.4296297e+02  -5.5114209e+02  -5.6106000e+02  -5.7260011e+02  -5.8508397e+02  -5.9756257e+02  -6.0921754e+02  -6.1925865e+02  -6.2658477e+02  -6.2987934e+02  -6.2819690e+02  -6.2131532e+02  -6.0928856e+02  -5.9172647e+02  -5.6765730e+02  -5.3590559e+02  -4.9540974e+02  -4.4534682e+02  -3.8516002e+02  -3.1452247e+02  -2.3342711e+02  -1.4241224e+02  -4.2655563e+01   6.4095705e+01   1.7564368e+02   2.8940218e+02   4.0240687e+02   5.1149751e+02   6.1361165e+02   7.0587993e+02   7.8555017e+02   8.4992458e+02   8.9647434e+02   9.2332215e+02   9.2974755e+02   9.1610746e+02   8.8346471e+02   8.3356799e+02   7.6908817e+02   6.9371629e+02   6.1188752e+02   5.2811370e+02   4.4630887e+02   3.6958628e+02   3.0053981e+02   2.4140751e+02   1.9376676e+02   1.5827565e+02   1.3482532e+02   1.2290646e+02   1.2185814e+02   1.3071190e+02   1.4792530e+02   1.7150939e+02   1.9938179e+02   2.2960821e+02   2.6048887e+02   2.9043026e+02   3.1776034e+02   3.4077324e+02   3.5783185e+02   3.6734780e+02   3.6780661e+02   3.5785801e+02   3.3642668e+02   3.0295972e+02   2.5766159e+02   2.0149754e+02   1.3611335e+02   6.3651437e+01  -1.3678217e+01  -9.3939311e+01  -1.7544421e+02  -2.5654813e+02  -3.3553183e+02  -4.1073623e+02  -4.8092999e+02  -5.4568624e+02  -6.0544222e+02  -6.6113757e+02  -7.1374892e+02  -7.6411747e+02  -8.1308902e+02  -8.6153599e+02  -9.1002045e+02  -9.5839849e+02  -1.0057569e+03  -1.0507769e+03  -1.0920437e+03  -1.1278037e+03  -1.1556218e+03  -1.1725457e+03  -1.1754306e+03  -1.1609948e+03  -1.1259986e+03  -1.0678749e+03  -9.8537918e+02  -8.7868701e+02  -7.4895580e+02  -5.9799129e+02  -4.2841639e+02  -2.4390565e+02  -4.9040164e+01   1.5099797e+02   3.5061978e+02   5.4401369e+02   7.2535897e+02   8.8904099e+02   1.0301305e+03   1.1451259e+03   1.2323449e+03   1.2915660e+03   1.3233240e+03   1.3286533e+03   1.3095332e+03   1.2694411e+03   1.2133101e+03   1.1467655e+03   1.0750495e+03   1.0022152e+03   9.3098142e+02   8.6308862e+02   7.9967225e+02   7.4147339e+02   6.8902699e+02   6.4287138e+02   6.0362750e+02   5.7187292e+02   5.4788891e+02   5.3138920e+02   5.2144806e+02   5.1670662e+02   5.1558237e+02   5.1627805e+02   5.1676274e+02   5.1500366e+02   5.0936580e+02   4.9886772e+02   4.8316443e+02   4.6230797e+02   4.3663093e+02   4.0693439e+02   3.7452553e+02   3.4082912e+02   3.0684449e+02   2.7291473e+02   2.3895579e+02   2.0466402e+02   1.6956323e+02   1.3335528e+02   9.6409253e+01   5.9722787e+01   2.4420069e+01  -8.6642955e+00  -3.9125284e+01  -6.6824556e+01  -9.1511668e+01  -1.1267388e+02  -1.2983729e+02  -1.4290948e+02  -1.5216549e+02  -1.5783028e+02  -1.5955873e+02  -1.5647318e+02  -1.4775127e+02  -1.3295642e+02  -1.1198257e+02  -8.5088574e+01  -5.2905330e+01  -1.6052205e+01   2.5402892e+01   7.2184914e+01   1.2569179e+02   1.8773713e+02   2.6024546e+02   3.4481375e+02   4.4222967e+02   5.5221987e+02   6.7347449e+02   8.0369675e+02   9.3965920e+02   1.0775465e+03   1.2133593e+03   1.3429211e+03   1.4618637e+03   1.5660043e+03   1.6517473e+03   1.7162768e+03   1.7575919e+03   1.7744226e+03   1.7662699e+03   1.7336524e+03   1.6783380e+03   1.6033497e+03   1.5126265e+03   1.4104409e+03   1.3008805e+03   1.1877431e+03   1.0747090e+03   9.6523293e+02   8.6220605e+02   7.6783490e+02   6.8365094e+02   6.1047495e+02   5.4844356e+02   4.9712547e+02   4.5581960e+02   4.2397899e+02   4.0125320e+02   3.8713664e+02   3.8084207e+02   3.8138818e+02   3.8744434e+02   3.9714321e+02   4.0827537e+02   4.1862161e+02   4.2608909e+02   4.2885517e+02   4.2567993e+02   4.1599468e+02   3.9956946e+02   3.7628922e+02   3.4635452e+02   3.1048106e+02   2.6965763e+02   2.2471131e+02   1.7630647e+02   1.2523656e+02   7.2363109e+01   1.8395765e+01  -3.5973202e+01  -8.9804772e+01  -1.4198681e+02  -1.9165081e+02  -2.3848178e+02  -2.8254933e+02  -3.2387579e+02  -3.6223874e+02  -3.9739188e+02  -4.2945294e+02  -4.5909430e+02  -4.8740226e+02  -5.1540278e+02  -5.4352159e+02  -5.7164705e+02  -5.9973586e+02  -6.2798811e+02  -6.5644108e+02  -6.8475242e+02  -7.1242248e+02  -7.3908507e+02  -7.6454211e+02  -7.8846268e+02  -8.1000930e+02  -8.2782568e+02  -8.4035012e+02  -8.4603131e+02  -8.4334069e+02  -8.3070970e+02  -8.0648687e+02  -7.6918058e+02  -7.1803461e+02  -6.5336768e+02  -5.7636337e+02  -4.8871500e+02  -3.9248795e+02  -2.9012673e+02  -1.8438547e+02  -7.8185680e+01   2.5473251e+01   1.2363531e+02   2.1357769e+02   2.9288184e+02   3.5942875e+02   4.1155731e+02   4.4824103e+02   4.6906692e+02   4.7414817e+02   4.6400984e+02   4.3932729e+02   4.0069626e+02   3.4881747e+02   2.8499253e+02   2.1133195e+02   1.3046356e+02   4.5171202e+01  -4.1769473e+01  -1.2768088e+02  -2.1004062e+02  -2.8664762e+02  -3.5595966e+02  -4.1711511e+02  -4.6951215e+02  -5.1265783e+02  -5.4646294e+02  -5.7137558e+02  -5.8823616e+02  -5.9807108e+02  -6.0182014e+02  -6.0028231e+02  -5.9449939e+02  -5.8604626e+02  -5.7687278e+02  -5.6904413e+02  -5.6451298e+02  -5.6474768e+02  -5.7036802e+02  -5.8110766e+02  -5.9614380e+02  -6.1456712e+02  -6.3568168e+02  -6.5894522e+02  -6.8365018e+02  -7.0865724e+02  -7.3236564e+02  -7.5292956e+02  -7.6874247e+02  -7.7893978e+02  -7.8351962e+02  -7.8315523e+02  -7.7902066e+02  -7.7265960e+02  -7.6568661e+02  -7.5933722e+02  -7.5427356e+02  -7.5075879e+02  -7.4886185e+02  -7.4858682e+02  -7.4992797e+02  -7.5274450e+02  -7.5672551e+02  -7.6166309e+02  -7.6762083e+02  -7.7481748e+02  -7.8351424e+02  -7.9394446e+02  -8.0627261e+02  -8.2065084e+02  -8.3719512e+02  -8.5570492e+02  -8.7530650e+02  -8.9435750e+02  -9.1068612e+02  -9.2193549e+02  -9.2579104e+02  -9.2004415e+02  -9.0267429e+02  -8.7209483e+02  -8.2723683e+02  -7.6737189e+02  -6.9224693e+02  -6.0255647e+02  -4.9999165e+02  -3.8677207e+02  -2.6553371e+02  -1.3978656e+02  -1.4011391e+01   1.0697829e+02   2.1874135e+02   3.1746119e+02   3.9979715e+02   4.6289035e+02   5.0501872e+02   5.2625843e+02   5.2826067e+02   5.1351767e+02   4.8484992e+02   4.4520436e+02   3.9764667e+02   3.4540426e+02   2.9170930e+02   2.3932056e+02   1.9003195e+02   1.4470080e+02   1.0381400e+02   6.7925412e+01   3.7525037e+01   1.2746384e+01  -6.6365962e+00  -2.1077660e+01  -3.1206264e+01  -3.7778574e+01  -4.1599602e+01  -4.3529812e+01  -4.4473040e+01  -4.5242637e+01  -4.6519207e+01  -4.8939009e+01  -5.3173975e+01  -5.9907745e+01  -6.9627065e+01  -8.2488387e+01  -9.8515969e+01  -1.1791005e+02  -1.4108811e+02  -1.6834812e+02  -1.9955101e+02  -2.3412876e+02  -2.7116349e+02  -3.0940048e+02  -3.4730772e+02  -3.8322508e+02  -4.1560598e+02  -4.4322422e+02  -4.6527787e+02  -4.8146653e+02  -4.9190905e+02  -4.9692160e+02  -4.9709194e+02  -4.9352596e+02  -4.8772564e+02  -4.8120651e+02  -4.7512880e+02  -4.7009382e+02  -4.6636014e+02  -4.6420199e+02  -4.6390752e+02  -4.6558580e+02  -4.6910521e+02  -4.7407161e+02  -4.7983717e+02  -4.8575468e+02  -4.9150674e+02  -4.9697260e+02  -5.0164819e+02  -5.0433238e+02  -5.0345948e+02  -4.9765245e+02  -4.8586624e+02  -4.6703635e+02  -4.3981902e+02  -4.0287223e+02  -3.5536783e+02  -2.9720372e+02  -2.2883878e+02  -1.5102183e+02  -6.4616493e+01   2.9317605e+01   1.2917863e+02   2.3264495e+02   3.3679122e+02   4.3821508e+02   5.3323599e+02   6.1815079e+02   6.8940210e+02   7.4383241e+02   7.7919704e+02   7.9470753e+02   7.9109075e+02   7.7009325e+02   7.3393277e+02   6.8512436e+02   6.2670815e+02   5.6245004e+02   4.9653799e+02   4.3284676e+02   3.7424230e+02   3.2232237e+02   2.7762813e+02   2.3997579e+02   2.0874326e+02   1.8315568e+02   1.6235862e+02   1.4545424e+02   1.3185355e+02   1.2140166e+02   1.1399140e+02   1.0931660e+02   1.0689920e+02   1.0602866e+02   1.0564677e+02   1.0441074e+02   1.0101175e+02   9.4609599e+01   8.5141147e+01   7.3235248e+01   5.9712675e+01   4.5118435e+01   2.9721434e+01   1.3796721e+01  -2.3516603e+00  -1.8486296e+01  -3.4323951e+01  -4.9655975e+01  -6.4659257e+01  -7.9775447e+01  -9.5379157e+01  -1.1169467e+02  -1.2878043e+02  -1.4648294e+02  -1.6453908e+02  -1.8264340e+02  -2.0024388e+02  -2.1632787e+02  -2.2957818e+02  -2.3885219e+02  -2.4354211e+02  -2.4352739e+02  -2.3897885e+02  -2.3031394e+02  -2.1824381e+02  -2.0381911e+02  -1.8829163e+02  -1.7282678e+02  -1.5851501e+02  -1.4661442e+02  -1.3853902e+02  -1.3547189e+02  -1.3781506e+02  -1.4487324e+02  -1.5503236e+02  -1.6613276e+02  -1.7562159e+02  -1.8058307e+02  -1.7783341e+02  -1.6417439e+02  -1.3700677e+02  -9.4971998e+01  -3.7960438e+01   3.3375337e+01   1.1793787e+02   2.1406897e+02   3.1920173e+02   4.2977726e+02   5.4174477e+02   6.5116410e+02   7.5429511e+02   8.4740282e+02   9.2689505e+02   9.8986678e+02   1.0345534e+03   1.0603609e+03   1.0676396e+03   1.0574575e+03   1.0314279e+03   9.9147631e+02   9.3956249e+02   8.7757457e+02   8.0745786e+02   7.3142650e+02   6.5205303e+02   5.7214539e+02   4.9451524e+02   4.2182368e+02   3.5652793e+02   3.0063612e+02   2.5526857e+02   2.2052846e+02   1.9577491e+02   1.7995495e+02   1.7185783e+02   1.7019595e+02   1.7352012e+02   1.8027987e+02   1.8906623e+02   1.9869727e+02   2.0808423e+02   2.1606526e+02   2.2131691e+02   2.2248298e+02   2.1844441e+02   2.0848530e+02   1.9234481e+02   1.7016743e+02   1.4228364e+02   1.0894231e+02   7.0362530e+01   2.7216792e+01  -1.9143287e+01  -6.7217092e+01  -1.1583619e+02  -1.6403529e+02  -2.1090977e+02  -2.5566817e+02  -2.9762433e+02  -3.3620522e+02  -3.7108154e+02  -4.0229932e+02  -4.3012743e+02  -4.5465699e+02  -4.7566518e+02  -4.9289148e+02  -5.0629415e+02  -5.1603894e+02  -5.2233902e+02  -5.2538693e+02  -5.2557711e+02  -5.2375755e+02  -5.2106845e+02  -5.1851293e+02  -5.1673064e+02  -5.1608353e+02  -5.1676504e+02  -5.1877696e+02  -5.2193934e+02  -5.2593461e+02  -5.3031031e+02  -5.3454741e+02  -5.3807137e+02  -5.4012604e+02  -5.3966570e+02  -5.3516808e+02  -5.2448907e+02  -5.0505989e+02  -4.7423510e+02  -4.2969816e+02  -3.6992817e+02  -2.9433103e+02  -2.0310669e+02  -9.7388636e+01   2.0427722e+01   1.4675239e+02   2.7744895e+02   4.0850567e+02   5.3633248e+02   6.5784550e+02   7.7035791e+02   8.7136006e+02   9.5847190e+02   1.0296242e+03   1.0833017e+03   1.1186281e+03   1.1353281e+03   1.1336276e+03   1.1140985e+03   1.0777412e+03   1.0262681e+03   9.6218003e+02   8.8847768e+02   8.0817528e+02   7.2410514e+02   6.3919147e+02   5.5665137e+02   4.7965697e+02   4.1072163e+02   3.5137580e+02   3.0222481e+02   2.6315528e+02   2.3360730e+02   2.1281966e+02   1.9983246e+02   1.9333278e+02   1.9169854e+02   1.9318751e+02   1.9607129e+02   1.9881400e+02   2.0019655e+02   1.9924320e+02   1.9524492e+02   1.8795065e+02   1.7760301e+02   1.6477197e+02   1.5001571e+02   1.3346578e+02   1.1477735e+02   9.3522877e+01   6.9587867e+01   4.3257303e+01   1.5020232e+01  -1.4678728e+01  -4.5578823e+01  -7.7569423e+01  -1.1061218e+02  -1.4490123e+02  -1.8096618e+02  -2.1928330e+02  -2.5975361e+02  -3.0150158e+02  -3.4302607e+02  -3.8258254e+02  -4.1862830e+02  -4.5010909e+02  -4.7642468e+02  -4.9734907e+02  -5.1316766e+02  -5.2477937e+02  -5.3348382e+02  -5.4043570e+02  -5.4622093e+02  -5.5100522e+02  -5.5485210e+02  -5.5771764e+02  -5.5942649e+02  -5.5997527e+02  -5.5975390e+02  -5.5931417e+02  -5.5894373e+02  -5.5830972e+02  -5.5650607e+02  -5.5253463e+02  -5.4535290e+02  -5.3334895e+02  -5.1424694e+02  -4.8564490e+02  -4.4554593e+02  -3.9260124e+02  -3.2612876e+02  -2.4604201e+02  -1.5276557e+02  -4.7154605e+01   6.9443895e+01   1.9499366e+02   3.2662485e+02   4.6067851e+02   5.9305394e+02   7.1966737e+02   8.3660729e+02   9.4010145e+02   1.0266965e+03   1.0934960e+03   1.1382706e+03   1.1597166e+03   1.1578017e+03   1.1338271e+03   1.0902783e+03   1.0306222e+03   9.5891479e+02   8.7937671e+02   7.9618536e+02   7.1317281e+02   6.3337497e+02   5.5897894e+02   4.9175570e+02   4.3349189e+02   3.8608652e+02   3.5123412e+02   3.2981241e+02   3.2137792e+02   3.2407031e+02
  -1.4638203e+03  -1.4979186e+03  -1.5298828e+03  -1.5578548e+03  -1.5797204e+03  -1.5932139e+03  -1.5958685e+03  -1.5849246e+03  -1.5574169e+03  -1.5103062e+03  -1.4406400e+03  -1.3459710e+03  -1.2247284e+03  -1.0761982e+03  -9.0041111e+02  -6.9822060e+02  -4.7162079e+02  -2.2416570e+02   3.9051713e+01   3.1199341e+02   5.8818073e+02   8.6074939e+02   1.1225314e+03   1.3665059e+03   1.5862347e+03   1.7760977e+03   1.9316048e+03   2.0496405e+03   2.1283287e+03   2.1667884e+03   2.1653319e+03   2.1260109e+03   2.0527148e+03   1.9506191e+03   1.8256585e+03   1.6842992e+03   1.5332696e+03   1.3791295e+03   1.2278731e+03   1.0847604e+03   9.5435861e+02   8.4045426e+02   7.4576943e+02   6.7187304e+02   6.1928067e+02   5.8729761e+02   5.7366545e+02   5.7477930e+02   5.8667605e+02   6.0580559e+02   6.2888385e+02   6.5232324e+02   6.7207655e+02   6.8411528e+02   6.8509431e+02   6.7271751e+02   6.4576865e+02   6.0401638e+02   5.4802640e+02   4.7881777e+02   3.9754848e+02   3.0557157e+02   2.0468509e+02   9.7075289e+01  -1.4873311e+01  -1.2856319e+02  -2.4133367e+02  -3.5099835e+02  -4.5616589e+02  -5.5600164e+02  -6.5000975e+02  -7.3808714e+02  -8.2038115e+02  -8.9701084e+02  -9.6814543e+02  -1.0343029e+03  -1.0962865e+03  -1.1546984e+03  -1.2096342e+03  -1.2608432e+03  -1.3080125e+03  -1.3509493e+03  -1.3897158e+03  -1.4247127e+03  -1.4566341e+03  -1.4862907e+03  -1.5144050e+03  -1.5413772e+03  -1.5670774e+03  -1.5908945e+03  -1.6119676e+03  -1.6293575e+03  -1.6421935e+03  -1.6498456e+03  -1.6519269e+03  -1.6478611e+03  -1.6363042e+03  -1.6151124e+03  -1.5816352e+03  -1.5326901e+03  -1.4645482e+03  -1.3733887e+03  -1.2559112e+03  -1.1096412e+03  -9.3286270e+02  -7.2459119e+02  -4.8508346e+02  -2.1659693e+02   7.6415290e+01   3.8773294e+02   7.0976281e+02   1.0336439e+03   1.3495357e+03   1.6474246e+03   1.9181191e+03   2.1539966e+03   2.3493894e+03   2.5006443e+03   2.6060240e+03   2.6656780e+03   2.6815552e+03   2.6570397e+03   2.5964996e+03   2.5050534e+03   2.3884978e+03   2.2530807e+03   2.1050982e+03   1.9505890e+03   1.7952120e+03   1.6441581e+03   1.5019369e+03   1.3721748e+03   1.2576865e+03   1.1605338e+03   1.0817816e+03   1.0213692e+03   9.7823224e+02   9.5040427e+02   9.3515489e+02   9.2931600e+02   9.2978851e+02   9.3377978e+02   9.3848739e+02   9.4085281e+02   9.3774787e+02   9.2626427e+02   9.0391108e+02   8.6874981e+02   8.1962114e+02   7.5647286e+02   6.8041487e+02   5.9326970e+02   4.9699995e+02   3.9343268e+02   2.8415661e+02   1.7042382e+02   5.3173892e+01  -6.6758307e+01  -1.8840808e+02  -3.1064526e+02  -4.3235885e+02  -5.5256178e+02  -6.7028801e+02  -7.8457264e+02  -8.9454295e+02  -9.9945128e+02  -1.0987038e+03  -1.1917666e+03  -1.2778971e+03  -1.3561118e+03  -1.4255185e+03  -1.4856068e+03  -1.5363927e+03  -1.5785032e+03  -1.6130117e+03  -1.6410697e+03  -1.6637065e+03  -1.6819410e+03  -1.6969408e+03  -1.7099784e+03  -1.7222035e+03  -1.7344136e+03  -1.7470750e+03  -1.7605243e+03  -1.7749431e+03  -1.7901306e+03  -1.8054418e+03  -1.8199350e+03  -1.8325898e+03  -1.8424054e+03  -1.8482874e+03  -1.8489882e+03  -1.8431609e+03  -1.8292247e+03  -1.8050805e+03  -1.7680565e+03  -1.7151954e+03  -1.6436020e+03  -1.5506261e+03  -1.4339320e+03  -1.2916108e+03  -1.1225875e+03  -9.2731132e+02  -7.0810960e+02  -4.6887374e+02  -2.1461009e+02   4.8731481e+01   3.1439704e+02   5.7528375e+02   8.2462873e+02   1.0563444e+03   1.2648465e+03   1.4450603e+03   1.5928338e+03   1.7053374e+03   1.7812438e+03   1.8206797e+03   1.8250908e+03   1.7971871e+03   1.7407650e+03   1.6602790e+03   1.5605137e+03   1.4465482e+03   1.3237173e+03   1.1974382e+03   1.0730764e+03   9.5576196e+02   8.4990601e+02   7.5867680e+02   6.8388802e+02   6.2617046e+02   5.8499034e+02   5.5858260e+02   5.4426005e+02   5.3904893e+02   5.4014974e+02   5.4510895e+02   5.5175994e+02   5.5800020e+02   5.6180830e+02   5.6139710e+02   5.5501590e+02   5.4076531e+02   5.1695323e+02   4.8265500e+02   4.3785134e+02   3.8316097e+02   3.1963884e+02   2.4874345e+02   1.7218401e+02   9.1576324e+01   8.2095536e+00  -7.6956439e+01  -1.6319972e+02  -2.4981593e+02  -3.3582692e+02  -4.1997047e+02  -5.0104086e+02  -5.7823479e+02  -6.5126527e+02  -7.2020240e+02  -7.8515732e+02  -8.4610184e+02  -9.0293204e+02  -9.5559344e+02  -1.0040772e+03  -1.0484181e+03  -1.0888847e+03  -1.1260217e+03  -1.1602751e+03  -1.1916082e+03  -1.2194736e+03  -1.2430965e+03  -1.2618292e+03  -1.2752983e+03  -1.2834670e+03  -1.2868926e+03  -1.2868799e+03  -1.2851826e+03  -1.2835193e+03  -1.2832575e+03  -1.2853450e+03  -1.2902932e+03  -1.2979298e+03  -1.3072409e+03  -1.3167171e+03  -1.3245907e+03  -1.3285200e+03  -1.3255042e+03  -1.3123599e+03  -1.2859138e+03  -1.2427107e+03  -1.1790133e+03  -1.0912664e+03  -9.7643420e+02  -8.3195733e+02  -6.5576244e+02  -4.4678595e+02  -2.0575572e+02   6.4484228e+01   3.5919519e+02   6.7205485e+02   9.9546187e+02   1.3209479e+03   1.6396541e+03   1.9427473e+03   2.2217172e+03   2.4687835e+03   2.6776492e+03   2.8441182e+03   2.9658774e+03   3.0419765e+03   3.0729519e+03   3.0612916e+03   3.0114711e+03   2.9292891e+03   2.8208360e+03   2.6919122e+03   2.5481268e+03   2.3951206e+03   2.2386247e+03   2.0844090e+03   1.9380087e+03   1.8041436e+03   1.6861470e+03   1.5857113e+03   1.5029825e+03   1.4369716e+03   1.3859446e+03   1.3475912e+03   1.3193546e+03   1.2989061e+03   1.2842883e+03   1.2737613e+03   1.2656626e+03   1.2582682e+03   1.2495704e+03   1.2371037e+03   1.2180298e+03   1.1895962e+03   1.1497602e+03   1.0975302e+03   1.0328687e+03   9.5638849e+02   8.6914024e+02   7.7261563e+02   6.6888851e+02   5.6055794e+02   4.5026152e+02   3.4019009e+02   2.3195375e+02   1.2654156e+02   2.4419308e+01  -7.4043933e+01  -1.6824202e+02  -2.5742382e+02  -3.4101991e+02  -4.1894378e+02  -4.9154331e+02  -5.5917592e+02  -6.2210251e+02  -6.8088969e+02  -7.3638026e+02  -7.8911937e+02  -8.3934355e+02  -8.8740879e+02  -9.3364158e+02  -9.7804478e+02  -1.0205301e+03  -1.0611323e+03  -1.0999094e+03  -1.1368052e+03  -1.1715699e+03  -1.2038449e+03  -1.2333854e+03  -1.2602299e+03  -1.2847767e+03  -1.3076949e+03  -1.3296674e+03  -1.3512150e+03  -1.3727372e+03  -1.3945910e+03  -1.4170192e+03  -1.4400042e+03  -1.4633174e+03  -1.4866924e+03  -1.5097598e+03  -1.5316435e+03  -1.5504803e+03  -1.5632602e+03  -1.5660775e+03  -1.5546119e+03  -1.5246492e+03  -1.4723840e+03  -1.3945618e+03  -1.2887220e+03  -1.1534736e+03  -9.8876503e+02  -7.9617232e+02  -5.7893902e+02  -3.4160619e+02  -8.9591657e+01   1.7090990e+02   4.3292975e+02   6.8898481e+02   9.3152159e+02   1.1533943e+03   1.3483512e+03   1.5113628e+03   1.6387317e+03   1.7281514e+03   1.7787687e+03   1.7913100e+03   1.7682256e+03   1.7134965e+03   1.6320269e+03   1.5290099e+03   1.4096682e+03   1.2793563e+03   1.1435956e+03   1.0078367e+03   8.7719115e+02   7.5625937e+02   6.4890690e+02   5.5794357e+02   4.8499893e+02   4.3072917e+02   3.9501267e+02   3.7703280e+02   3.7529415e+02   3.8742348e+02   4.1003867e+02   4.3908060e+02   4.7038244e+02   5.0008286e+02   5.2475316e+02   5.4135104e+02   5.4737937e+02   5.4128997e+02   5.2253182e+02   4.9109819e+02   4.4723386e+02   3.9161643e+02   3.2556197e+02   2.5086800e+02   1.6943417e+02   8.3024387e+01  -6.7087816e+00  -9.8219395e+01  -1.9023891e+02  -2.8190251e+02  -3.7266144e+02  -4.6204002e+02  -5.4941510e+02  -6.3396947e+02  -7.1485034e+02  -7.9134806e+02  -8.6284390e+02  -9.2862160e+02  -9.8781532e+02  -1.0395504e+03  -1.0832197e+03  -1.1186795e+03  -1.1461176e+03  -1.1658453e+03  -1.1783380e+03  -1.1843623e+03  -1.1849229e+03  -1.1810221e+03  -1.1735677e+03  -1.1636207e+03  -1.1525459e+03  -1.1418772e+03  -1.1332719e+03  -1.1285058e+03  -1.1291164e+03  -1.1357376e+03  -1.1475477e+03  -1.1622332e+03  -1.1764300e+03  -1.1861491e+03  -1.1869165e+03  -1.1738966e+03  -1.1423205e+03  -1.0880439e+03  -1.0078463e+03  -8.9946906e+02  -7.6164556e+02  -5.9438155e+02  -3.9936561e+02  -1.8006634e+02   5.8486698e+01   3.1001887e+02   5.6747422e+02   8.2355820e+02   1.0710958e+03   1.3032468e+03   1.5137541e+03   1.6972174e+03   1.8494734e+03   1.9679310e+03   2.0514547e+03   2.0998485e+03   2.1133937e+03   2.0929088e+03   2.0403400e+03   1.9591778e+03   1.8541970e+03   1.7308532e+03   1.5948651e+03   1.4520558e+03   1.3081629e+03   1.1684610e+03   1.0374315e+03   9.1879589e+02   8.1582823e+02   7.3145932e+02   6.6778605e+02   6.2537477e+02   6.0321582e+02   5.9928413e+02   6.1087199e+02   6.3452807e+02   6.6611772e+02   7.0125109e+02   7.3573132e+02   7.6568267e+02   7.8757042e+02   7.9839558e+02   7.9600430e+02   7.7932522e+02   7.4842320e+02   7.0427331e+02   6.4825288e+02   5.8184424e+02   5.0688303e+02   4.2559588e+02   3.3994754e+02   2.5118147e+02   1.6011875e+02   6.7645936e+01  -2.5118869e+01  -1.1692566e+02  -2.0645976e+02  -2.9237852e+02  -3.7355265e+02  -4.4919497e+02  -5.1858550e+02  -5.8081804e+02  -6.3489577e+02  -6.8005611e+02  -7.1605786e+02  -7.4334813e+02  -7.6317985e+02  -7.7744178e+02  -7.8815502e+02  -7.9711071e+02  -8.0582085e+02  -8.1554237e+02  -8.2720573e+02  -8.4130087e+02  -8.5801039e+02  -8.7759477e+02  -9.0045951e+02  -9.2677520e+02  -9.5630721e+02  -9.8863010e+02  -1.0231747e+03  -1.0589451e+03  -1.0943546e+03  -1.1275067e+03  -1.1566114e+03  -1.1799549e+03  -1.1954826e+03  -1.2005531e+03  -1.1919821e+03  -1.1662177e+03  -1.1195494e+03  -1.0482227e+03  -9.4866975e+02  -8.1816229e+02  -6.5562437e+02  -4.6212734e+02  -2.4071821e+02   4.2595010e+00   2.6759304e+02   5.4335713e+02   8.2536430e+02   1.1074485e+03   1.3830594e+03   1.6448724e+03   1.8850928e+03   2.0962101e+03   2.2717356e+03   2.4067196e+03   2.4980578e+03   2.5446632e+03   2.5474018e+03   2.5086679e+03   2.4320845e+03   2.3227033e+03   2.1869952e+03   2.0321390e+03   1.8653557e+03   1.6937713e+03   1.5242565e+03   1.3628550e+03   1.2141547e+03   1.0811010e+03   9.6536548e+02   8.6784096e+02   7.8871984e+02   7.2736283e+02   6.8253965e+02   6.5273093e+02   6.3594100e+02   6.2944196e+02   6.3000138e+02   6.3428055e+02   6.3892856e+02   6.4052329e+02   6.3570903e+02   6.2157355e+02   5.9598446e+02   5.5766246e+02   5.0621324e+02   4.4226842e+02   3.6734279e+02   2.8326306e+02   1.9171403e+02   9.4199672e+01  -7.8814114e+00  -1.1323615e+02  -2.2059940e+02  -3.2855552e+02  -4.3553721e+02  -5.4001110e+02  -6.4049546e+02  -7.3539561e+02  -8.2302958e+02  -9.0192785e+02  -9.7108184e+02  -1.0300209e+03  -1.0789263e+03  -1.1187073e+03  -1.1507612e+03  -1.1766129e+03  -1.1978112e+03  -1.2159814e+03  -1.2327037e+03  -1.2492473e+03  -1.2665681e+03  -1.2855307e+03  -1.3068122e+03  -1.3305856e+03  -1.3565546e+03  -1.3843011e+03  -1.4133891e+03  -1.4430279e+03  -1.4718500e+03  -1.4983032e+03  -1.5212957e+03  -1.5403604e+03  -1.5552273e+03  -1.5654468e+03  -1.5704097e+03  -1.5693960e+03  -1.5614290e+03  -1.5451585e+03  -1.5189135e+03  -1.4807269e+03  -1.4282482e+03  -1.3588165e+03  -1.2698172e+03  -1.1590159e+03  -1.0246006e+03  -8.6523172e+02  -6.8049492e+02  -4.7153426e+02  -2.4130689e+02   5.5980246e+00   2.6315432e+02   5.2399099e+02   7.7973492e+02   1.0218870e+03   1.2427413e+03   1.4357474e+03   1.5956922e+03   1.7190030e+03   1.8038697e+03   1.8500411e+03   1.8584290e+03   1.8308703e+03   1.7701317e+03   1.6799109e+03   1.5648690e+03   1.4307130e+03   1.2840623e+03   1.1319759e+03   9.8125918e+02   8.3784511e+02   7.0654062e+02   5.9110997e+02   4.9443266e+02   4.1840208e+02   3.6345670e+02   3.2832102e+02   3.1043960e+02   3.0676616e+02   3.1434463e+02   3.3032061e+02   3.5169075e+02   3.7543582e+02   3.9879304e+02   4.1919231e+02   4.3416685e+02   4.4150765e+02   4.3942400e+02   4.2661255e+02   4.0230274e+02   3.6612730e+02   3.1787287e+02   2.5747177e+02   1.8521952e+02   1.0194791e+02   9.0559936e+00  -9.1498497e+01  -1.9715341e+02  -3.0490887e+02  -4.1182272e+02  -5.1536080e+02  -6.1342135e+02  -7.0443906e+02  -7.8758013e+02  -8.6260266e+02  -9.2956778e+02  -9.8898856e+02  -1.0421436e+03  -1.0908423e+03  -1.1367933e+03  -1.1811915e+03  -1.2247141e+03  -1.2677654e+03  -1.3106747e+03  -1.3536008e+03  -1.3961979e+03  -1.4374459e+03  -1.4759348e+03  -1.5103236e+03  -1.5395948e+03  -1.5631850e+03  -1.5810555e+03  -1.5935110e+03  -1.6009086e+03  -1.6035495e+03  -1.6016916e+03  -1.5956058e+03  -1.5856345e+03  -1.5720299e+03  -1.5544774e+03  -1.5315491e+03  -1.5004815e+03  -1.4574908e+03  -1.3983822e+03  -1.3189904e+03  -1.2153564e+03  -1.0839156e+03  -9.2185308e+02  -7.2754663e+02  -5.0101793e+02  -2.4437981e+02   3.7810118e+01   3.3863230e+02   6.4961500e+02   9.6173853e+02   1.2659441e+03   1.5535234e+03   1.8167131e+03   2.0490273e+03   2.2452486e+03   2.4014647e+03   2.5153340e+03   2.5862642e+03   2.6151012e+03   2.6037913e+03   2.5555218e+03   2.4748190e+03   2.3671827e+03   2.2385847e+03   2.0951673e+03   1.9430157e+03   1.7877455e+03   1.6341686e+03   1.4863657e+03   1.3478483e+03   1.2215573e+03   1.1099148e+03   1.0148926e+03   9.3789042e+02   8.7946089e+02   8.3897679e+02   8.1447422e+02   8.0294213e+02   8.0086216e+02   8.0457506e+02   8.1044768e+02   8.1508948e+02   8.1557718e+02   8.0941074e+02   7.9431436e+02   7.6826578e+02   7.2969715e+02   6.7759725e+02   6.1156871e+02   5.3192369e+02   4.3968520e+02   3.3644464e+02   2.2427812e+02   1.0577540e+02  -1.6223014e+01  -1.3918300e+02  -2.6093101e+02  -3.7922087e+02  -4.9190243e+02  -5.9761236e+02  -6.9581213e+02  -7.8617180e+02  -8.6828640e+02  -9.4205945e+02  -1.0080635e+03  -1.0672354e+03  -1.1204032e+03  -1.1683157e+03  -1.2118738e+03  -1.2520558e+03  -1.2895811e+03  -1.3247355e+03  -1.3575907e+03  -1.3883658e+03  -1.4175533e+03  -1.4456800e+03  -1.4730350e+03  -1.4997377e+03  -1.5258048e+03  -1.5509848e+03  -1.5748333e+03  -1.5970274e+03  -1.6173693e+03  -1.6355720e+03  -1.6512698e+03  -1.6641054e+03  -1.6736842e+03  -1.6794678e+03  -1.6804988e+03  -1.6750859e+03  -1.6608636e+03  -1.6350567e+03  -1.5945486e+03  -1.5359999e+03  -1.4562349e+03  -1.3525316e+03  -1.2227087e+03  -1.0653771e+03  -8.8033689e+02  -6.6880800e+02  -4.3353022e+02  -1.7883108e+02   8.9360521e+01   3.6360979e+02   6.3536928e+02   8.9565196e+02   1.1356915e+03   1.3475398e+03   1.5246081e+03   1.6619899e+03   1.7566475e+03   1.8075418e+03   1.8156023e+03   1.7835661e+03   1.7156761e+03   1.6171787e+03   1.4937837e+03   1.3514011e+03   1.1962242e+03   1.0347443e+03   8.7340464e+02   7.1810339e+02   5.7395495e+02   4.4540362e+02   3.3619493e+02   2.4903893e+02   1.8540822e+02   1.4553995e+02   1.2839823e+02   1.3163851e+02   1.5177542e+02   1.8465964e+02   2.2594327e+02   2.7103522e+02   3.1503008e+02   3.5338792e+02   3.8268843e+02   4.0047749e+02   4.0475003e+02   3.9402896e+02   3.6766767e+02   3.2572640e+02   2.6887927e+02   1.9858300e+02   1.1687913e+02   2.5795476e+01  -7.2956332e+01  -1.7773501e+02  -2.8663738e+02  -3.9752736e+02  -5.0824458e+02  -6.1660011e+02  -7.2033454e+02  -8.1742472e+02  -9.0655037e+02  -9.8720388e+02  -1.0593518e+03  -1.1231555e+03  -1.1791221e+03  -1.2282020e+03  -1.2713754e+03  -1.3093059e+03  -1.3425764e+03  -1.3719633e+03  -1.3982518e+03  -1.4220643e+03  -1.4440251e+03  -1.4647779e+03  -1.4847087e+03  -1.5037836e+03  -1.5217159e+03  -1.5383084e+03  -1.5536752e+03  -1.5680596e+03  -1.5812113e+03  -1.5918943e+03  -1.5980130e+03  -1.5968671e+03  -1.5850266e+03  -1.5582248e+03  -1.5117738e+03  -1.4413160e+03  -1.3433655e+03  -1.2156053e+03  -1.0573368e+03  -8.6988133e+02  -6.5647491e+02  -4.2183831e+02  -1.7182806e+02   8.6751927e+01   3.4638060e+02   5.9916844e+02   8.3725619e+02   1.0533864e+03   1.2414426e+03   1.3965603e+03   1.5151391e+03   1.5950680e+03   1.6358887e+03   1.6388672e+03   1.6069819e+03   1.5445301e+03   1.4564131e+03   1.3476611e+03   1.2234719e+03   1.0892064e+03   9.4989016e+02   8.0984327e+02   6.7294407e+02   5.4290934e+02   4.2304822e+02   3.1589602e+02   2.2315847e+02   1.4582619e+02   8.4298725e+01   3.8484483e+01   7.8027021e+00  -8.7990326e+00  -1.2661000e+01  -5.2753128e+00   1.1488631e+01   3.4981454e+01   6.1825594e+01   8.8621677e+01   1.1254877e+02   1.3120526e+02   1.4234312e+02   1.4421645e+02   1.3595477e+02   1.1737509e+02   8.8567201e+01   4.9617454e+01   6.3210878e-01  -5.7903300e+01  -1.2484090e+02
  -1.5518152e+03  -1.5971931e+03  -1.6365356e+03  -1.6679717e+03  -1.6892034e+03  -1.6975126e+03  -1.6899458e+03  -1.6636410e+03  -1.6162989e+03  -1.5466595e+03  -1.4547486e+03  -1.3418664e+03  -1.2102879e+03  -1.0628622e+03  -9.0274032e+02  -7.3330362e+02  -5.5840991e+02  -3.8250131e+02  -2.1008746e+02  -4.5043767e+01   1.0972913e+02   2.5224870e+02   3.8125861e+02   4.9611614e+02   5.9677603e+02   6.8376792e+02   7.5800954e+02   8.2042709e+02   8.7152743e+02   9.1119511e+02   9.3893542e+02   9.5445704e+02   9.5812365e+02   9.5086306e+02   9.3393368e+02   9.0907443e+02   8.7865142e+02   8.4544889e+02   8.1220876e+02   7.8111851e+02   7.5376275e+02   7.3156490e+02   7.1592905e+02   7.0784339e+02   7.0755485e+02   7.1459720e+02   7.2788357e+02   7.4577820e+02   7.6623156e+02   7.8689323e+02   8.0524850e+02   8.1889908e+02   8.2577345e+02   8.2408908e+02   8.1232629e+02   7.8938045e+02   7.5483038e+02   7.0920856e+02   6.5394801e+02   5.9088742e+02   5.2169334e+02   4.4759043e+02   3.6944810e+02   2.8801614e+02   2.0417189e+02   1.1901435e+02   3.3609201e+01  -5.1317515e+01  -1.3530350e+02  -2.1785624e+02  -2.9829706e+02  -3.7585902e+02  -4.4985688e+02  -5.1959193e+02  -5.8419356e+02  -6.4289759e+02  -6.9551866e+02  -7.4260918e+02  -7.8533367e+02  -8.2517292e+02  -8.6356527e+02  -9.0172834e+02  -9.4062578e+02  -9.8088736e+02  -1.0228224e+03  -1.0667000e+03  -1.1129380e+03  -1.1618569e+03  -1.2132846e+03  -1.2663518e+03  -1.3196018e+03  -1.3713430e+03  -1.4197876e+03  -1.4628165e+03  -1.4978336e+03  -1.5219583e+03  -1.5322756e+03  -1.5259715e+03  -1.5004328e+03  -1.4533580e+03  -1.3830061e+03  -1.2886553e+03  -1.1709833e+03  -1.0320772e+03  -8.7522769e+02  -7.0468295e+02  -5.2529341e+02  -3.4209119e+02  -1.5994324e+02   1.6655380e+01   1.8365473e+02   3.3749121e+02   4.7518256e+02   5.9448606e+02   6.9403604e+02   7.7328092e+02   8.3227059e+02   8.7165781e+02   8.9291536e+02   8.9826953e+02   8.9020276e+02   8.7094241e+02   8.4233791e+02   8.0615900e+02   7.6442280e+02   7.1940428e+02   6.7340954e+02   6.2847729e+02   5.8612525e+02   5.4731933e+02   5.1260191e+02   4.8204067e+02   4.5502882e+02   4.3024030e+02   4.0583689e+02   3.7991074e+02   3.5084376e+02   3.1730449e+02   2.7816144e+02   2.3259070e+02   1.8034322e+02   1.2188434e+02   5.8086504e+01  -1.0236471e+01  -8.2436936e+01  -1.5784198e+02  -2.3559004e+02  -3.1470249e+02  -3.9433603e+02  -4.7379655e+02  -5.5220701e+02  -6.2839351e+02  -7.0133430e+02  -7.7072456e+02  -8.3697347e+02  -9.0063974e+02  -9.6201260e+02  -1.0211386e+03  -1.0779079e+03  -1.1320033e+03  -1.1829923e+03  -1.2307510e+03  -1.2758799e+03  -1.3196220e+03  -1.3633124e+03  -1.4078531e+03  -1.4535076e+03  -1.4998424e+03  -1.5457436e+03  -1.5897123e+03  -1.6303000e+03  -1.6663428e+03  -1.6970207e+03  -1.7219297e+03  -1.7411367e+03  -1.7551610e+03  -1.7650097e+03  -1.7721680e+03  -1.7783070e+03  -1.7848486e+03  -1.7925994e+03  -1.8014732e+03  -1.8103911e+03  -1.8173590e+03  -1.8195186e+03  -1.8132513e+03  -1.7946386e+03  -1.7601152e+03  -1.7068009e+03  -1.6323364e+03  -1.5346106e+03  -1.4119702e+03  -1.2640287e+03  -1.0923147e+03  -9.0002199e+02  -6.9130323e+02  -4.7094743e+02  -2.4437832e+02  -1.7418447e+01   2.0427798e+02   4.1570036e+02   6.1264067e+02   7.9183758e+02   9.5118119e+02   1.0895428e+03   1.2062896e+03   1.3012044e+03   1.3748466e+03   1.4287490e+03   1.4653044e+03   1.4874336e+03   1.4981434e+03   1.5002591e+03   1.4964326e+03   1.4891281e+03   1.4803790e+03   1.4716857e+03   1.4641780e+03   1.4585438e+03   1.4547967e+03   1.4524741e+03   1.4511876e+03   1.4509326e+03   1.4519282e+03   1.4542588e+03   1.4575964e+03   1.4611240e+03   1.4637302e+03   1.4642982e+03   1.4618722e+03   1.4557064e+03   1.4451985e+03   1.4297535e+03   1.4087493e+03   1.3816431e+03   1.3480626e+03   1.3078581e+03   1.2612808e+03   1.2091186e+03   1.1524755e+03   1.0924295e+03   1.0299058e+03   9.6568853e+02   9.0042325e+02   8.3461123e+02   7.6871568e+02   7.0334635e+02   6.3917411e+02   5.7658093e+02   5.1557492e+02   4.5611537e+02   3.9839942e+02   3.4276175e+02   2.8939654e+02   2.3828266e+02   1.8928940e+02   1.4223089e+02   9.6773643e+01   5.2322720e+01   8.0197803e+00  -3.7131329e+01  -8.3931125e+01  -1.3264431e+02  -1.8305567e+02  -2.3481802e+02  -2.8780114e+02  -3.4227315e+02  -3.9866497e+02  -4.5708568e+02  -5.1715859e+02  -5.7824470e+02  -6.3969204e+02  -7.0097417e+02  -7.6161918e+02  -8.2085586e+02  -8.7737286e+02  -9.2955431e+02  -9.7574045e+02  -1.0139829e+03  -1.0417196e+03  -1.0558601e+03  -1.0531413e+03  -1.0306215e+03  -9.8607773e+02  -9.1807960e+02  -8.2596460e+02  -7.0992158e+02  -5.7117061e+02  -4.1217650e+02  -2.3659336e+02  -4.8687249e+01   1.4736609e+02   3.4779755e+02   5.4918894e+02   7.4827348e+02   9.4180366e+02   1.1265373e+03   1.2992487e+03   1.4567493e+03   1.5959942e+03   1.7144500e+03   1.8105890e+03   1.8840548e+03   1.9355446e+03   1.9667631e+03   1.9803001e+03   1.9791862e+03   1.9664267e+03   1.9448401e+03   1.9170367e+03   1.8853452e+03   1.8518014e+03   1.8182502e+03   1.7862915e+03   1.7570454e+03   1.7311603e+03   1.7090181e+03   1.6906348e+03   1.6753030e+03   1.6614128e+03   1.6466832e+03   1.6287582e+03   1.6057992e+03   1.5766802e+03   1.5408514e+03   1.4981896e+03   1.4487926e+03   1.3925985e+03   1.3292233e+03   1.2582401e+03   1.1795728e+03   1.0938213e+03   1.0023865e+03   9.0717962e+02   8.1015901e+02   7.1312281e+02   6.1773285e+02   5.2554771e+02   4.3794801e+02   3.5591695e+02   2.7986562e+02   2.0967735e+02   1.4477773e+02   8.4077535e+01   2.5992756e+01  -3.1274012e+01  -8.9369120e+01  -1.4952776e+02  -2.1239183e+02  -2.7798257e+02  -3.4588791e+02  -4.1548501e+02  -4.8599807e+02  -5.5653526e+02  -6.2636518e+02  -6.9519675e+02  -7.6314247e+02  -8.3052644e+02  -8.9771466e+02  -9.6485056e+02  -1.0315554e+03  -1.0969598e+03  -1.1601038e+03  -1.2202473e+03  -1.2767845e+03  -1.3289532e+03  -1.3756834e+03  -1.4156923e+03  -1.4475866e+03  -1.4696851e+03  -1.4798080e+03  -1.4754790e+03  -1.4543330e+03  -1.4142926e+03  -1.3536858e+03  -1.2716031e+03  -1.1681991e+03  -1.0445976e+03  -9.0262438e+02  -7.4462525e+02  -5.7331143e+02  -3.9165637e+02  -2.0291101e+02  -1.0621728e+01   1.8149093e+02   3.6980646e+02   5.5092264e+02   7.2143483e+02   8.7785437e+02   1.0169265e+03   1.1360931e+03   1.2338993e+03   1.3100469e+03   1.3651215e+03   1.4004032e+03   1.4177489e+03   1.4193672e+03   1.4076440e+03   1.3852755e+03   1.3554023e+03   1.3212696e+03   1.2856993e+03   1.2508397e+03   1.2182024e+03   1.1887959e+03   1.1631806e+03   1.1414676e+03   1.1233437e+03   1.1080932e+03   1.0946579e+03   1.0817280e+03   1.0678362e+03   1.0516012e+03   1.0320084e+03   1.0083946e+03   9.8031198e+02   9.4753325e+02   9.0985818e+02   8.6675299e+02   8.1749374e+02   7.6173418e+02   6.9971096e+02   6.3197552e+02   5.5914998e+02   4.8185263e+02   4.0068226e+02   3.1631465e+02   2.2969682e+02   1.4201123e+02   5.4324962e+01  -3.2549507e+01  -1.1779980e+02  -2.0032758e+02  -2.7864140e+02  -3.5110792e+02  -4.1643888e+02  -4.7388689e+02  -5.2320679e+02  -5.6484824e+02  -6.0015882e+02  -6.3108543e+02  -6.5956782e+02  -6.8721199e+02  -7.1537243e+02  -7.4525651e+02  -7.7777171e+02  -8.1332963e+02  -8.5184282e+02  -8.9279571e+02  -9.3534536e+02  -9.7850732e+02  -1.0212417e+03  -1.0623077e+03  -1.1000750e+03  -1.1324821e+03  -1.1570798e+03  -1.1710880e+03  -1.1715872e+03  -1.1558199e+03  -1.1214290e+03  -1.0666716e+03  -9.9061226e+02  -8.9315422e+02  -7.7496693e+02  -6.3741129e+02  -4.8250867e+02  -3.1308361e+02  -1.3291250e+02   5.3448245e+01   2.4102126e+02   4.2465223e+02   5.9920209e+02   7.5998478e+02   9.0338643e+02   1.0271286e+03   1.1299678e+03   1.2112423e+03   1.2706668e+03   1.3084140e+03   1.3253053e+03   1.3230351e+03   1.3043567e+03   1.2728546e+03   1.2322716e+03   1.1859289e+03   1.1364596e+03   1.0857716e+03   1.0352904e+03   9.8632894e+02   9.4018088e+02   8.9778251e+02   8.5942005e+02   8.2492158e+02   7.9391131e+02   7.6569904e+02   7.3913548e+02   7.1274400e+02   6.8484459e+02   6.5349483e+02   6.1660420e+02   5.7227137e+02   5.1901361e+02   4.5590908e+02   3.8272779e+02   2.9991638e+02   2.0847226e+02   1.0983334e+02   5.8181611e+00  -1.0138729e+02  -2.0937463e+02  -3.1594457e+02  -4.1947183e+02  -5.1874486e+02  -6.1262723e+02  -7.0017882e+02  -7.8099180e+02  -8.5519910e+02  -9.2326272e+02  -9.8581179e+02  -1.0436025e+03  -1.0976198e+03  -1.1491402e+03  -1.1995015e+03  -1.2496367e+03  -1.2997915e+03  -1.3496940e+03  -1.3989843e+03  -1.4476279e+03  -1.4960463e+03  -1.5448907e+03  -1.5948024e+03  -1.6462510e+03  -1.6993634e+03  -1.7540303e+03  -1.8102762e+03  -1.8683411e+03  -1.9283835e+03  -1.9901923e+03  -2.0529906e+03  -2.1153939e+03  -2.1755660e+03  -2.2312317e+03  -2.2795851e+03  -2.3174275e+03  -2.3413142e+03  -2.3475886e+03  -2.3327451e+03  -2.2941721e+03  -2.2306921e+03  -2.1424980e+03  -2.0307001e+03  -1.8969024e+03  -1.7429873e+03  -1.5711336e+03  -1.3839710e+03  -1.1846650e+03  -9.7689762e+02  -7.6484046e+02  -5.5308729e+02  -3.4637008e+02  -1.4906701e+02   3.5110500e+01   2.0313999e+02   3.5285611e+02   4.8328573e+02   5.9467700e+02   6.8819790e+02   7.6552111e+02   8.2837504e+02   8.7834327e+02   9.1694026e+02   9.4550673e+02   9.6488066e+02   9.7523022e+02   9.7619370e+02   9.6730934e+02   9.4854738e+02   9.2059787e+02   8.8483551e+02   8.4307712e+02   7.9733957e+02   7.4973205e+02   7.0228562e+02   6.5663610e+02   6.1378213e+02   5.7405562e+02   5.3727217e+02   5.0302501e+02   4.7098085e+02   4.4087547e+02   4.1218046e+02   3.8387100e+02   3.5466222e+02   3.2354883e+02   2.9016348e+02   2.5463415e+02   2.1713707e+02   1.7765581e+02   1.3597196e+02   9.1655857e+01   4.4209324e+01  -6.6529382e+00  -6.0825591e+01  -1.1776997e+02  -1.7669173e+02  -2.3696697e+02  -2.9838408e+02  -3.6086226e+02  -4.2412216e+02  -4.8773130e+02  -5.5109125e+02  -6.1323976e+02  -6.7303044e+02  -7.2967819e+02  -7.8303989e+02  -8.3337878e+02  -8.8092611e+02  -9.2567184e+02  -9.6740203e+02  -1.0057025e+03  -1.0400355e+03  -1.0700159e+03  -1.0955285e+03  -1.1167185e+03  -1.1342801e+03  -1.1496325e+03  -1.1644236e+03  -1.1799494e+03  -1.1970145e+03  -1.2158225e+03  -1.2357786e+03  -1.2554850e+03  -1.2729539e+03  -1.2860401e+03  -1.2928612e+03  -1.2917974e+03  -1.2812401e+03  -1.2595395e+03  -1.2251976e+03  -1.1770562e+03  -1.1143243e+03  -1.0364402e+03  -9.4292879e+02  -8.3354219e+02  -7.0865173e+02  -5.6951337e+02  -4.1817481e+02  -2.5714113e+02  -8.9087988e+01   8.3200899e+01   2.5677748e+02   4.2854015e+02   5.9529014e+02   7.5389661e+02   9.0160367e+02   1.0361844e+03   1.1559620e+03   1.2598856e+03   1.3475267e+03   1.4189474e+03   1.4745194e+03   1.5147249e+03   1.5400613e+03   1.5512876e+03   1.5498661e+03   1.5379766e+03   1.5179935e+03   1.4919923e+03   1.4616639e+03   1.4285203e+03   1.3940653e+03   1.3596562e+03   1.3261721e+03   1.2939261e+03   1.2628330e+03   1.2324903e+03   1.2022411e+03   1.1713480e+03   1.1390248e+03   1.1043120e+03   1.0661515e+03   1.0236284e+03   9.7605975e+02   9.2302558e+02   8.6456095e+02   8.0131098e+02   7.3437793e+02   6.6506960e+02   5.9473669e+02   5.2452263e+02   4.5520953e+02   3.8733441e+02   3.2128513e+02   2.5726222e+02   1.9519479e+02   1.3483425e+02   7.6091337e+01   1.9151122e+01  -3.5860251e+01  -8.9299035e+01  -1.4206441e+02  -1.9526660e+02  -2.5001192e+02  -3.0747469e+02  -3.6873235e+02  -4.3419044e+02  -5.0325535e+02  -5.7469228e+02  -6.4722382e+02  -7.1976249e+02  -7.9115250e+02  -8.5982397e+02  -9.2388559e+02  -9.8161270e+02  -1.0318534e+03  -1.0742715e+03  -1.1096057e+03  -1.1395653e+03  -1.1660181e+03  -1.1901640e+03  -1.2124724e+03  -1.2330638e+03  -1.2517780e+03  -1.2679517e+03  -1.2805225e+03  -1.2884281e+03  -1.2906605e+03  -1.2859072e+03  -1.2723035e+03  -1.2476444e+03  -1.2099942e+03  -1.1581772e+03  -1.0917370e+03  -1.0107221e+03  -9.1560077e+02  -8.0716906e+02  -6.8644021e+02  -5.5460441e+02  -4.1318433e+02  -2.6427791e+02  -1.1050757e+02   4.5284323e+01   2.0036125e+02   3.5245877e+02   5.0001095e+02   6.4207199e+02   7.7804110e+02   9.0730982e+02   1.0290619e+03   1.1423413e+03   1.2462210e+03   1.3399471e+03   1.4230798e+03   1.4955539e+03   1.5574227e+03   1.6084105e+03   1.6478485e+03   1.6750400e+03   1.6895281e+03   1.6911902e+03   1.6804118e+03   1.6583465e+03   1.6271344e+03   1.5898438e+03   1.5499422e+03   1.5106391e+03   1.4746390e+03   1.4441667e+03   1.4207785e+03   1.4050626e+03   1.3965855e+03   1.3940245e+03   1.3953896e+03   1.3983553e+03   1.4004779e+03   1.3992496e+03   1.3922222e+03   1.3772204e+03   1.3525554e+03   1.3171292e+03   1.2703854e+03   1.2123815e+03   1.1440316e+03   1.0670215e+03   9.8330538e+02   8.9474575e+02   8.0308554e+02   7.0997716e+02   6.1702537e+02   5.2585801e+02   4.3806334e+02   3.5501023e+02   2.7768551e+02   2.0667942e+02   1.4225215e+02   8.4185261e+01   3.1606754e+01  -1.6865114e+01  -6.2879325e+01  -1.0812923e+02  -1.5406281e+02  -2.0179035e+02  -2.5227980e+02  -3.0633814e+02  -3.6422184e+02  -4.2548056e+02  -4.8928874e+02  -5.5491720e+02  -6.2192405e+02  -6.8985532e+02  -7.5795348e+02  -8.2527540e+02  -8.9075214e+02  -9.5296987e+02  -1.0100507e+03  -1.0597338e+03  -1.0995579e+03  -1.1272147e+03  -1.1408375e+03  -1.1388787e+03  -1.1198855e+03  -1.0825961e+03  -1.0261806e+03  -9.5034072e+02  -8.5539117e+02  -7.4244070e+02  -6.1354743e+02  -4.7167305e+02  -3.2034735e+02  -1.6325663e+02  -3.9903304e+00   1.5410510e+02   3.0799280e+02   4.5494691e+02   5.9259178e+02   7.1899729e+02   8.3270480e+02   9.3263252e+02   1.0180820e+03   1.0889137e+03   1.1455328e+03   1.1885479e+03   1.2185813e+03   1.2364281e+03   1.2430957e+03   1.2397179e+03   1.2277120e+03   1.2089615e+03   1.1857960e+03   1.1608494e+03   1.1366616e+03   1.1151991e+03   1.0977729e+03   1.0851668e+03   1.0775997e+03   1.0746858e+03   1.0755137e+03   1.0786717e+03   1.0822705e+03   1.0841582e+03   1.0821976e+03   1.0744896e+03   1.0595657e+03   1.0364328e+03   1.0045383e+03   9.6378855e+02   9.1443032e+02   8.5685349e+02   7.9158513e+02   7.1925318e+02   6.4036492e+02   5.5531783e+02   4.6476725e+02   3.6990575e+02   2.7237911e+02   1.7393486e+02   7.6017080e+01  -2.0421851e+01  -1.1480029e+02  -2.0673232e+02  -2.9603675e+02  -3.8274659e+02  -4.6686768e+02  -5.4817514e+02  -6.2634350e+02  -7.0114071e+02  -7.7243733e+02  -8.4012165e+02  -9.0409463e+02  -9.6448529e+02  -1.0218864e+03  -1.0772287e+03  -1.1314325e+03  -1.1852025e+03  -1.2389437e+03  -1.2926752e+03  -1.3460813e+03  -1.3987652e+03  -1.4505246e+03  -1.5014429e+03  -1.5516315e+03  -1.6009285e+03  -1.6489564e+03  -1.6951873e+03  -1.7387426e+03  -1.7784284e+03  -1.8133275e+03  -1.8433756e+03  -1.8692497e+03  -1.8917989e+03  -1.9117010e+03  -1.9293892e+03  -1.9449091e+03  -1.9577751e+03  -1.9669099e+03  -1.9706050e+03  -1.9666476e+03  -1.9525261e+03  -1.9256114e+03  -1.8835110e+03  -1.8244606e+03  -1.7473271e+03  -1.6513538e+03  -1.5361279e+03  -1.4017642e+03  -1.2490969e+03  -1.0799704e+03  -8.9748188e+02  -7.0569658e+02  -5.0904404e+02  -3.1207396e+02  -1.1939940e+02   6.4729655e+01   2.3694961e+02   3.9479208e+02   5.3633078e+02   6.6008180e+02   7.6519961e+02   8.5149895e+02   9.1920386e+02   9.6885992e+02   1.0015376e+03   1.0189589e+03   1.0234045e+03   1.0174816e+03   1.0038000e+03   9.8467870e+02   9.6196244e+02   9.3698315e+02   9.1072395e+02   8.8400539e+02   8.5749053e+02   8.3165609e+02   8.0694573e+02   7.8397719e+02   7.6354292e+02   7.4644522e+02   7.3331847e+02   7.2448925e+02   7.1991053e+02   7.1915605e+02   7.2133700e+02   7.2486915e+02   7.2741280e+02   7.2621213e+02   7.1853417e+02   7.0197126e+02   6.7469901e+02   6.3570008e+02   5.8470644e+02   5.2188575e+02   4.4768345e+02   3.6290523e+02   2.6878424e+02   1.6692992e+02   5.9295825e+01  -5.1734246e+01  -1.6332397e+02  -2.7247797e+02  -3.7658607e+02  -4.7381097e+02  -5.6311036e+02  -6.4405373e+02  -7.1655607e+02  -7.8067146e+02  -8.3658289e+02  -8.8466673e+02  -9.2556304e+02  -9.6026161e+02  -9.9006544e+02  -1.0163906e+03  -1.0405212e+03  -1.0634985e+03  -1.0862715e+03  -1.1099235e+03  -1.1356372e+03  -1.1643776e+03  -1.1965281e+03  -1.2316669e+03  -1.2686318e+03
  -8.6481358e+02  -8.6076978e+02  -8.5961971e+02  -8.6113655e+02  -8.6430260e+02  -8.6732274e+02  -8.6780047e+02  -8.6309924e+02  -8.5057392e+02  -8.2756606e+02  -7.9154717e+02  -7.4034133e+02  -6.7210885e+02  -5.8538806e+02  -4.7949820e+02  -3.5503011e+02  -2.1412235e+02  -6.0431821e+01   1.0128255e+02   2.6584340e+02   4.2819933e+02   5.8351954e+02   7.2707780e+02   8.5436614e+02   9.6135134e+02   1.0446056e+03   1.1014247e+03   1.1301411e+03   1.1305118e+03   1.1039323e+03   1.0533666e+03   9.8305346e+02   8.9813601e+02   8.0417153e+02   7.0651016e+02   6.0980486e+02   5.1783748e+02   4.3365622e+02   3.5986595e+02   2.9879279e+02   2.5235522e+02   2.2172779e+02   2.0698407e+02   2.0689362e+02   2.1911055e+02   2.4071955e+02   2.6861601e+02   2.9947283e+02   3.2976484e+02   3.5608964e+02   3.7539383e+02   3.8501831e+02   3.8288008e+02   3.6776041e+02   3.3947631e+02   2.9893680e+02   2.4797049e+02   1.8882385e+02   1.2360293e+02   5.3924553e+01  -1.8981527e+01  -9.3763265e+01  -1.6869738e+02  -2.4193076e+02  -3.1179543e+02  -3.7703500e+02  -4.3684285e+02  -4.9064647e+02  -5.3795513e+02  -5.7850912e+02  -6.1257278e+02  -6.4100698e+02  -6.6501323e+02  -6.8585781e+02  -7.0471287e+02  -7.2261782e+02  -7.4063362e+02  -7.5991611e+02  -7.8154934e+02  -8.0638732e+02  -8.3486494e+02  -8.6668035e+02  -9.0071086e+02  -9.3545604e+02  -9.6958491e+02  -1.0019526e+03  -1.0313997e+03  -1.0569428e+03  -1.0780321e+03  -1.0944558e+03  -1.1060869e+03  -1.1128066e+03  -1.1146542e+03  -1.1119692e+03  -1.1054470e+03  -1.0962036e+03  -1.0857522e+03  -1.0757262e+03  -1.0673794e+03  -1.0610357e+03  -1.0557155e+03  -1.0492202e+03  -1.0385882e+03  -1.0206102e+03  -9.9225390e+02  -9.5077692e+02  -8.9366255e+02  -8.1885312e+02  -7.2515310e+02  -6.1246823e+02  -4.8194467e+02  -3.3606360e+02  -1.7858646e+02  -1.4159927e+01   1.5243403e+02   3.1683253e+02   4.7500195e+02   6.2290442e+02   7.5657396e+02   8.7263114e+02   9.6871911e+02   1.0435684e+03   1.0968501e+03   1.1289860e+03   1.1410094e+03   1.1345727e+03   1.1119449e+03   1.0757719e+03   1.0288076e+03   9.7388310e+02   9.1389668e+02   8.5155258e+02   7.8906101e+02   7.2806312e+02   6.6964188e+02   6.1438891e+02   5.6267643e+02   5.1491093e+02   4.7148019e+02   4.3258984e+02   3.9827025e+02   3.6839581e+02   3.4258790e+02   3.2020281e+02   3.0045550e+02   2.8248822e+02   2.6536520e+02   2.4819762e+02   2.3027072e+02   2.1086314e+02   1.8897632e+02   1.6335447e+02   1.3272115e+02   9.5933914e+01   5.1990930e+01   1.8971316e-01  -5.9429985e+01  -1.2582582e+02  -1.9719508e+02  -2.7139380e+02  -3.4614182e+02  -4.1903352e+02  -4.8757748e+02  -5.4934636e+02  -6.0229922e+02  -6.4518677e+02  -6.7769520e+02  -7.0030810e+02  -7.1411475e+02  -7.2062173e+02  -7.2165943e+02  -7.1937367e+02  -7.1606481e+02  -7.1396597e+02  -7.1517280e+02  -7.2146581e+02  -7.3394986e+02  -7.5290527e+02  -7.7788126e+02  -8.0778034e+02  -8.4094273e+02  -8.7530528e+02  -9.0866844e+02  -9.3902277e+02  -9.6482545e+02  -9.8528450e+02  -1.0005460e+03  -1.0114878e+03  -1.0192386e+03  -1.0248626e+03  -1.0293619e+03  -1.0335881e+03  -1.0377918e+03  -1.0413431e+03  -1.0430081e+03  -1.0413085e+03  -1.0346017e+03  -1.0211063e+03  -9.9901710e+02  -9.6666080e+02  -9.2260561e+02  -8.6557326e+02  -7.9432361e+02  -7.0782327e+02  -6.0550562e+02  -4.8734919e+02  -3.5390456e+02  -2.0644779e+02  -4.7234524e+01   1.2042918e+02   2.9256380e+02   4.6513391e+02   6.3439649e+02   7.9672636e+02   9.4823548e+02   1.0847262e+03   1.2021532e+03   1.2973171e+03   1.3683292e+03   1.4146043e+03   1.4365504e+03   1.4352257e+03   1.4121212e+03   1.3691926e+03   1.3091780e+03   1.2358046e+03   1.1533828e+03   1.0661363e+03   9.7799692e+02   8.9284781e+02   8.1457290e+02   7.4656540e+02   6.9112304e+02   6.4926933e+02   6.2083599e+02   6.0449261e+02   5.9798763e+02   5.9868197e+02   6.0397294e+02   6.1141217e+02   6.1854379e+02   6.2277292e+02   6.2163298e+02   6.1318560e+02   5.9620780e+02   5.7032068e+02   5.3609789e+02   4.9495903e+02   4.4886959e+02   4.0004371e+02   3.5070376e+02   3.0272945e+02   2.5725705e+02   2.1457858e+02   1.7436896e+02   1.3602174e+02   9.8982700e+01   6.2930561e+01   2.7657636e+01  -7.1420874e+00  -4.1816852e+01  -7.6620312e+01  -1.1183555e+02  -1.4786724e+02  -1.8497958e+02  -2.2297351e+02  -2.6126692e+02  -2.9930859e+02  -3.3673350e+02  -3.7313417e+02  -4.0803878e+02  -4.4116982e+02  -4.7241526e+02  -5.0156877e+02  -5.2831357e+02  -5.5235761e+02  -5.7340266e+02  -5.9098013e+02  -6.0450779e+02  -6.1373742e+02  -6.1915614e+02  -6.2193781e+02  -6.2363184e+02  -6.2579217e+02  -6.2948027e+02  -6.3497542e+02  -6.4202598e+02  -6.5014056e+02  -6.5863242e+02  -6.6672104e+02  -6.7358379e+02  -6.7810584e+02  -6.7863136e+02  -6.7319154e+02  -6.5999895e+02  -6.3761755e+02  -6.0488829e+02  -5.6093003e+02  -5.0513082e+02  -4.3715352e+02  -3.5702611e+02  -2.6520330e+02  -1.6261257e+02  -5.0599474e+01   6.9333814e+01   1.9565703e+02   3.2658975e+02   4.5986930e+02   5.9286164e+02   7.2294270e+02   8.4771196e+02   9.6490579e+02   1.0723729e+03   1.1682230e+03   1.2509163e+03   1.3191901e+03   1.3719839e+03   1.4084940e+03   1.4283173e+03   1.4316149e+03   1.4191354e+03   1.3921729e+03   1.3526106e+03   1.3027773e+03   1.2450732e+03   1.1817552e+03   1.1150098e+03   1.0470801e+03   9.8028675e+02   9.1688109e+02   8.5869189e+02   8.0684540e+02   7.6186124e+02   7.2388712e+02   6.9273222e+02   6.6788506e+02   6.4874158e+02   6.3469428e+02   6.2484945e+02   6.1775575e+02   6.1146557e+02   6.0384680e+02   5.9290595e+02   5.7692597e+02   5.5444905e+02   5.2435258e+02   4.8608064e+02   4.3977919e+02   3.8621992e+02   3.2663533e+02   2.6258328e+02   1.9579871e+02   1.2798438e+02   6.0746661e+01  -4.3460432e+00  -6.5842719e+01  -1.2251729e+02  -1.7344601e+02  -2.1822246e+02  -2.5714255e+02  -2.9103069e+02  -3.2084676e+02  -3.4756668e+02  -3.7224338e+02  -3.9577852e+02  -4.1864124e+02  -4.4094561e+02  -4.6263694e+02  -4.8344174e+02  -5.0277712e+02  -5.1995459e+02  -5.3448136e+02  -5.4612034e+02  -5.5485260e+02  -5.6099713e+02  -5.6542218e+02  -5.6954250e+02  -5.7496296e+02  -5.8308939e+02  -5.9502402e+02  -6.1158571e+02  -6.3322006e+02  -6.5987692e+02  -6.9092618e+02  -7.2507968e+02  -7.6043782e+02  -7.9470555e+02  -8.2528345e+02  -8.4912698e+02  -8.6279045e+02  -8.6286947e+02  -8.4652655e+02  -8.1182085e+02  -7.5784447e+02  -6.8471437e+02  -5.9343911e+02  -4.8578998e+02  -3.6424690e+02  -2.3195678e+02  -9.2679378e+01   4.9512573e+01   1.9078389e+02   3.2774105e+02   4.5729031e+02   5.7662491e+02   6.8326851e+02   7.7511110e+02   8.5051732e+02   9.0845545e+02   9.4872215e+02   9.7220276e+02   9.8081842e+02   9.7704217e+02   9.6336044e+02   9.4208848e+02   9.1538951e+02   8.8515213e+02   8.5289972e+02   8.2002856e+02   7.8807530e+02   7.5858249e+02   7.3284490e+02   7.1182805e+02   6.9583119e+02   6.8405656e+02   6.7488947e+02   6.6655618e+02   6.5742522e+02   6.4619468e+02   6.3205240e+02   6.1446186e+02   5.9291538e+02   5.6705925e+02   5.3674301e+02   5.0179091e+02   4.6205215e+02   4.1771009e+02   3.6934009e+02   3.1778558e+02   2.6403347e+02   2.0908757e+02   1.5390812e+02   9.9328032e+01   4.5929060e+01  -6.0055167e+00  -5.6526975e+01  -1.0594779e+02  -1.5451040e+02  -2.0219464e+02  -2.4891397e+02  -2.9465970e+02  -3.3938992e+02  -3.8293230e+02  -4.2499092e+02  -4.6510793e+02  -5.0259963e+02  -5.3675070e+02  -5.6718537e+02  -5.9385485e+02  -6.1666877e+02  -6.3544309e+02  -6.5024390e+02  -6.6155249e+02  -6.7007178e+02  -6.7650546e+02  -6.8145246e+02  -6.8541292e+02  -6.8901343e+02  -6.9326283e+02  -6.9947521e+02  -7.0899540e+02  -7.2295034e+02  -7.4198732e+02  -7.6627789e+02  -7.9583080e+02  -8.3057847e+02  -8.7015214e+02  -9.1368842e+02  -9.5972237e+02  -1.0061402e+03  -1.0504004e+03  -1.0900698e+03  -1.1232771e+03  -1.1487878e+03  -1.1658391e+03  -1.1739288e+03  -1.1726263e+03  -1.1613789e+03  -1.1392486e+03  -1.1047584e+03  -1.0561998e+03  -9.9216120e+02  -9.1164516e+02  -8.1393272e+02  -6.9877620e+02  -5.6684718e+02  -4.2002549e+02  -2.6134348e+02  -9.4655692e+01   7.5688534e+01   2.4504613e+02   4.0869551e+02   5.6209949e+02   7.0111504e+02   8.2213462e+02   9.2224621e+02   9.9942190e+02   1.0526938e+03   1.0822911e+03   1.0895733e+03   1.0767067e+03   1.0463954e+03   1.0018637e+03   9.4690425e+02   8.8573793e+02   8.2271814e+02   7.6210802e+02   7.0774163e+02   6.6241038e+02   6.2754703e+02   6.0339368e+02   5.8914892e+02   5.8301639e+02   5.8247347e+02   5.8480741e+02   5.8754685e+02   5.8860232e+02   5.8633782e+02   5.7960196e+02   5.6776983e+02   5.5087301e+02   5.2949710e+02   5.0449152e+02   4.7688687e+02   4.4782916e+02   4.1832911e+02   3.8913990e+02   3.6082299e+02   3.3372019e+02   3.0778515e+02   2.8250331e+02   2.5710143e+02   2.3095299e+02   2.0389538e+02   1.7617315e+02   1.4801787e+02   1.1938706e+02   9.0077558e+01   5.9812591e+01   2.8169887e+01  -5.4583597e+00  -4.1820572e+01  -8.1643417e+01  -1.2529989e+02  -1.7249176e+02  -2.2236400e+02  -2.7403563e+02  -3.2683336e+02  -3.8003309e+02  -4.3273638e+02  -4.8397664e+02  -5.3273438e+02  -5.7798662e+02  -6.1884876e+02  -6.5462397e+02  -6.8475542e+02  -7.0881837e+02  -7.2664079e+02  -7.3839714e+02  -7.4455378e+02  -7.4588574e+02  -7.4370271e+02  -7.3991416e+02  -7.3658773e+02  -7.3539027e+02  -7.3738466e+02  -7.4305902e+02  -7.5235278e+02  -7.6469258e+02  -7.7911638e+02  -7.9442023e+02  -8.0922801e+02  -8.2208565e+02  -8.3161868e+02  -8.3653605e+02  -8.3547168e+02  -8.2690878e+02  -8.0927335e+02  -7.8116530e+02  -7.4155490e+02  -6.8969199e+02  -6.2487707e+02  -5.4653604e+02  -4.5461969e+02  -3.4982386e+02  -2.3339323e+02  -1.0681476e+02   2.8298778e+01   1.7005645e+02   3.1597719e+02   4.6279271e+02   6.0661796e+02   7.4340111e+02   8.6936170e+02   9.8136249e+02   1.0770658e+03   1.1547204e+03   1.2129342e+03   1.2506696e+03   1.2674009e+03   1.2634132e+03   1.2399336e+03   1.1989087e+03   1.1428344e+03   1.0748212e+03   9.9858194e+02   9.1815684e+02   8.3751967e+02   7.6027367e+02   6.8941032e+02   6.2715552e+02   5.7507421e+02   5.3423888e+02   5.0519297e+02   4.8785060e+02   4.8145121e+02   4.8454634e+02   4.9503616e+02   5.1028706e+02   5.2745444e+02   5.4394450e+02   5.5762566e+02   5.6674910e+02   5.6993139e+02   5.6606595e+02   5.5393467e+02   5.3196904e+02   4.9854611e+02   4.5263480e+02   3.9434795e+02   3.2506016e+02   2.4711323e+02   1.6335696e+02   7.6819414e+01  -9.4871016e+00  -9.2885790e+01  -1.7131217e+02  -2.4323805e+02  -3.0749409e+02  -3.6324456e+02  -4.0999124e+02  -4.4756300e+02  -4.7613334e+02  -4.9623913e+02  -5.0887625e+02  -5.1564195e+02  -5.1857427e+02  -5.1963440e+02  -5.2029182e+02  -5.2149371e+02  -5.2390926e+02  -5.2814207e+02  -5.3464969e+02  -5.4365352e+02  -5.5544973e+02  -5.7063759e+02  -5.8973793e+02  -6.1281892e+02  -6.3956608e+02  -6.6928260e+02  -7.0070660e+02  -7.3210334e+02  -7.6171989e+02  -7.8824657e+02  -8.1101547e+02  -8.3004033e+02  -8.4602181e+02  -8.6017036e+02  -8.7379681e+02  -8.8794741e+02  -9.0329265e+02  -9.2004973e+02  -9.3779124e+02  -9.5545338e+02  -9.7154933e+02  -9.8420256e+02  -9.9099573e+02  -9.8888038e+02  -9.7438949e+02  -9.4432464e+02  -8.9646827e+02  -8.2973847e+02  -7.4405818e+02  -6.4028093e+02  -5.2004780e+02  -3.8565672e+02  -2.4011873e+02  -8.7244005e+01   6.8592683e+01   2.2287669e+02   3.7118116e+02   5.0951724e+02   6.3483865e+02   7.4490099e+02   8.3765664e+02   9.1125420e+02   9.6465588e+02   9.9804039e+02   1.0126827e+03   1.0106350e+03   9.9447595e+02   9.6708899e+02   9.3151049e+02   8.9090037e+02   8.4845972e+02   8.0725114e+02   7.7002482e+02   7.3904865e+02   7.1590182e+02   7.0128194e+02   6.9504292e+02   6.9641494e+02   7.0407880e+02   7.1626032e+02   7.3103418e+02   7.4640926e+02   7.6014298e+02   7.6984046e+02   7.7336162e+02   7.6915339e+02   7.5643296e+02   7.3518026e+02   7.0585979e+02   6.6900300e+02   6.2487743e+02   5.7345797e+02   5.1481240e+02   4.4966051e+02   3.7961993e+02   3.0682864e+02   2.3322543e+02   1.6019872e+02   8.8700598e+01   1.9452176e+01  -4.6660312e+01  -1.0813937e+02  -1.6309358e+02  -2.1004518e+02  -2.4845609e+02  -2.7867015e+02  -3.0148607e+02  -3.1768277e+02  -3.2794112e+02  -3.3305813e+02  -3.3398215e+02  -3.3172483e+02  -3.2746628e+02  -3.2275230e+02  -3.1948930e+02  -3.1971591e+02  -3.2521417e+02  -3.3711350e+02  -3.5567291e+02  -3.8016854e+02  -4.0898488e+02  -4.4008944e+02  -4.7165219e+02  -5.0243082e+02  -5.3169817e+02  -5.5897258e+02  -5.8406583e+02  -6.0723288e+02  -6.2897387e+02  -6.4974561e+02  -6.6984878e+02  -6.8933919e+02  -7.0798687e+02  -7.2548348e+02  -7.4169855e+02  -7.5661911e+02  -7.7001361e+02  -7.8109402e+02  -7.8837943e+02  -7.8972402e+02  -7.8236086e+02  -7.6310826e+02  -7.2891823e+02  -6.7740535e+02  -6.0696840e+02  -5.1685494e+02  -4.0750603e+02  -2.8083742e+02  -1.4015639e+02   1.0219784e+01   1.6542403e+02   3.2033942e+02   4.6981786e+02   6.0901327e+02   7.3377636e+02   8.4096698e+02   9.2851006e+02   9.9529039e+02   1.0412016e+03   1.0670987e+03   1.0744369e+03   1.0650352e+03   1.0411206e+03   1.0054354e+03   9.6120672e+02   9.1186459e+02   8.6075121e+02   8.1096789e+02   7.6523578e+02   7.2574998e+02   6.9401001e+02   6.7060897e+02   6.5517083e+02   6.4661295e+02   6.4361816e+02   6.4500197e+02   6.4972361e+02   6.5668507e+02   6.6459000e+02   6.7183719e+02   6.7647457e+02   6.7635599e+02   6.6953007e+02   6.5474043e+02   6.3165019e+02   6.0062389e+02   5.6236765e+02   5.1759832e+02   4.6688918e+02   4.1079060e+02   3.4988928e+02   2.8478143e+02   2.1633177e+02   1.4595699e+02   7.5447845e+01   6.5708267e+00  -5.9187604e+01  -1.2072703e+02  -1.7728036e+02  -2.2832015e+02  -2.7355166e+02  -3.1288919e+02  -3.4640926e+02  -3.7431604e+02  -3.9695932e+02  -4.1498478e+02  -4.2937235e+02  -4.4122918e+02  -4.5164265e+02  -4.6171679e+02  -4.7268808e+02  -4.8591698e+02  -5.0257059e+02  -5.2334669e+02  -5.4859525e+02  -5.7841333e+02  -6.1247480e+02  -6.5001910e+02  -6.9003967e+02  -7.3146583e+02  -7.7328866e+02  -8.1453952e+02  -8.5422146e+02  -8.9119270e+02  -9.2399888e+02  -9.5106846e+02  -9.7119709e+02  -9.8373328e+02  -9.8854627e+02  -9.8605932e+02  -9.7707177e+02  -9.6245435e+02  -9.4314959e+02  -9.2019389e+02  -8.9441569e+02  -8.6610101e+02  -8.3481159e+02  -7.9934270e+02  -7.5799524e+02  -7.0909410e+02  -6.5141140e+02  -5.8433048e+02  -5.0778929e+02  -4.2214844e+02  -3.2807792e+02  -2.2653696e+02  -1.1883146e+02  -6.6057539e+00   1.0821236e+02   2.2359023e+02   3.3773253e+02   4.4922423e+02   5.5683389e+02   6.5928180e+02   7.5520054e+02   8.4322500e+02   9.2210641e+02   9.9079938e+02   1.0484283e+03   1.0942171e+03   1.1275702e+03   1.1483215e+03   1.1570079e+03   1.1548950e+03   1.1437342e+03   1.1255080e+03   1.1022509e+03   1.0758892e+03   1.0481594e+03   1.0206781e+03   9.9494454e+02   9.7213818e+02   9.5291792e+02   9.3729364e+02   9.2464032e+02   9.1395580e+02   9.0414311e+02   8.9417284e+02   8.8314682e+02   8.7030808e+02   8.5502778e+02   8.3664999e+02   8.1429421e+02   7.8685926e+02   7.5312848e+02   7.1188902e+02   6.6221257e+02   6.0377907e+02   5.3694125e+02   4.6253787e+02   3.8167246e+02   2.9562004e+02   2.0596972e+02   1.1491800e+02   2.5272091e+01  -6.0023319e+01  -1.3846911e+02  -2.0841668e+02  -2.6913430e+02  -3.2057021e+02  -3.6323921e+02  -3.9824478e+02  -4.2706159e+02  -4.5121537e+02  -4.7209696e+02  -4.9088422e+02  -5.0864012e+02  -5.2654344e+02  -5.4596189e+02  -5.6822422e+02  -5.9434776e+02  -6.2494182e+02  -6.6004588e+02  -6.9885099e+02  -7.3969052e+02  -7.8033633e+02  -8.1838562e+02  -8.5169569e+02  -8.7869522e+02  -8.9846058e+02  -9.1078506e+02  -9.1633701e+02  -9.1669333e+02  -9.1416875e+02  -9.1155285e+02  -9.1171732e+02  -9.1711028e+02  -9.2938823e+02  -9.4926960e+02  -9.7646518e+02  -1.0096307e+03  -1.0465214e+03  -1.0844331e+03  -1.1206454e+03  -1.1526909e+03  -1.1785104e+03  -1.1963634e+03  -1.2044550e+03  -1.2006403e+03  -1.1824669e+03  -1.1474290e+03  -1.0931913e+03  -1.0177977e+03  -9.2005968e+02  -7.9994881e+02  -6.5868592e+02  -4.9876501e+02  -3.2406394e+02  -1.3966977e+02   4.8664121e+01   2.3515264e+02   4.1444575e+02   5.8179413e+02   7.3314139e+02   8.6530408e+02   9.7601932e+02
  -1.0236265e+03  -1.0509242e+03  -1.0794759e+03  -1.1074538e+03  -1.1320887e+03  -1.1498632e+03  -1.1570427e+03  -1.1503735e+03  -1.1275085e+03  -1.0870051e+03  -1.0282008e+03  -9.5122380e+02  -8.5719482e+02  -7.4846352e+02  -6.2856904e+02  -5.0183705e+02  -3.7288636e+02  -2.4624122e+02  -1.2607528e+02  -1.6180642e+01   8.0029073e+01   1.5979210e+02   2.2139247e+02   2.6436032e+02   2.8931242e+02   2.9756073e+02   2.9094892e+02   2.7195544e+02   2.4361519e+02   2.0919389e+02   1.7183215e+02   1.3417497e+02   9.8125022e+01   6.5048340e+01   3.6165267e+01   1.2440689e+01  -5.9001271e+00  -1.9445982e+01  -2.9022589e+01  -3.5127270e+01  -3.8031827e+01  -3.8241048e+01  -3.6678965e+01  -3.4559377e+01  -3.3150990e+01  -3.3535905e+01  -3.6417039e+01  -4.2078988e+01  -5.0563257e+01  -6.1852554e+01  -7.5791832e+01  -9.1900344e+01  -1.0943874e+02  -1.2765740e+02  -1.4602176e+02  -1.6436662e+02  -1.8278662e+02  -2.0140020e+02  -2.2041116e+02  -2.4027857e+02  -2.6160211e+02  -2.8485183e+02  -3.1017052e+02  -3.3725177e+02  -3.6534586e+02  -3.9360226e+02  -4.2155286e+02  -4.4909563e+02  -4.7605916e+02  -5.0199092e+02  -5.2621993e+02  -5.4797429e+02  -5.6654052e+02  -5.8132557e+02  -5.9173128e+02  -5.9721638e+02  -5.9776236e+02  -5.9416269e+02  -5.8774269e+02  -5.7997854e+02  -5.7225496e+02  -5.6554305e+02  -5.6015410e+02  -5.5578801e+02  -5.5168915e+02  -5.4674039e+02  -5.3956687e+02  -5.2864774e+02  -5.1231750e+02  -4.8872020e+02  -4.5586280e+02  -4.1175223e+02  -3.5471474e+02  -2.8399545e+02  -2.0014341e+02  -1.0482516e+02  -4.9952298e-01   1.0977276e+02   2.2260013e+02   3.3472389e+02   4.4339845e+02   5.4631883e+02   6.4129303e+02   7.2611030e+02   7.9864500e+02   8.5706686e+02   9.0006897e+02   9.2701111e+02   9.3784527e+02   9.3297315e+02   9.1342725e+02   8.8125340e+02   8.3964952e+02   7.9262591e+02   7.4425600e+02   6.9791231e+02   6.5585048e+02   6.1931443e+02   5.8882422e+02   5.6413570e+02   5.4428483e+02   5.2811654e+02   5.1477702e+02   5.0382584e+02   4.9511290e+02   4.8846906e+02   4.8326049e+02   4.7821928e+02   4.7188267e+02   4.6319297e+02   4.5165502e+02   4.3716407e+02   4.1988741e+02   4.0021322e+02   3.7860431e+02   3.5544120e+02   3.3099496e+02   3.0534391e+02   2.7817089e+02   2.4888874e+02   2.1716162e+02   1.8317516e+02   1.4746394e+02   1.1064159e+02   7.3180579e+01   3.5413642e+01  -2.2037158e+00  -3.8860880e+01  -7.3410751e+01  -1.0468222e+02  -1.3183480e+02  -1.5453543e+02  -1.7316075e+02  -1.8890001e+02  -2.0323941e+02  -2.1715955e+02  -2.3089352e+02  -2.4425716e+02  -2.5704371e+02  -2.6928375e+02  -2.8135387e+02  -2.9379773e+02  -3.0696630e+02  -3.2089881e+02  -3.3541419e+02  -3.5003268e+02  -3.6372586e+02  -3.7475431e+02  -3.8078013e+02  -3.7923404e+02  -3.6771463e+02  -3.4431465e+02  -3.0784881e+02  -2.5783001e+02  -1.9422488e+02  -1.1738936e+02  -2.8448915e+01   7.0341470e+01   1.7587146e+02   2.8477054e+02   3.9369395e+02   4.9947386e+02   5.9937310e+02   6.9110895e+02   7.7262459e+02   8.4198216e+02   8.9745016e+02   9.3764193e+02   9.6173181e+02   9.6978448e+02   9.6297814e+02   9.4344520e+02   9.1370414e+02   8.7606812e+02   8.3247207e+02   7.8470041e+02   7.3470683e+02   6.8468995e+02   6.3679496e+02   5.9272437e+02   5.5355240e+02   5.1976999e+02   4.9151914e+02   4.6884211e+02   4.5171996e+02   4.4002859e+02   4.3356725e+02   4.3196585e+02   4.3438385e+02   4.3929701e+02   4.4468523e+02   4.4839445e+02   4.4828964e+02   4.4237893e+02   4.2908347e+02   4.0753070e+02   3.7779483e+02   3.4089942e+02   2.9847364e+02   2.5220219e+02   2.0339390e+02   1.5305852e+02   1.0222040e+02   5.1867741e+01   2.7421241e+00  -4.4606298e+01  -8.9669275e+01  -1.3205862e+02  -1.7169799e+02  -2.0872776e+02  -2.4324902e+02  -2.7537941e+02  -3.0552627e+02  -3.3441076e+02  -3.6275630e+02  -3.9100301e+02  -4.1927476e+02  -4.4749535e+02  -4.7547587e+02  -5.0283956e+02  -5.2893308e+02  -5.5292837e+02  -5.7399707e+02  -5.9154902e+02  -6.0557495e+02  -6.1668155e+02  -6.2557662e+02  -6.3249720e+02  -6.3705852e+02  -6.3844162e+02  -6.3560908e+02  -6.2726634e+02  -6.1166870e+02  -5.8674874e+02  -5.5065349e+02  -5.0231435e+02  -4.4167184e+02  -3.6945336e+02  -2.8687216e+02  -1.9558441e+02  -9.7736546e+01   4.1026340e+00   1.0716168e+02   2.0884643e+02   3.0693812e+02   3.9938096e+02   4.8413299e+02   5.5926967e+02   6.2302011e+02   6.7389377e+02   7.1103735e+02   7.3429845e+02   7.4390592e+02   7.4035082e+02   7.2461857e+02   6.9841399e+02   6.6398375e+02   6.2365696e+02   5.7966940e+02   5.3415088e+02   4.8890426e+02   4.4536927e+02   4.0498790e+02   3.6939033e+02   3.4004506e+02   3.1775277e+02   3.0243374e+02   2.9325079e+02   2.8890634e+02   2.8797635e+02   2.8916382e+02   2.9149074e+02   2.9445556e+02   2.9792603e+02   3.0168666e+02   3.0503954e+02   3.0683175e+02   3.0579619e+02   3.0089148e+02   2.9145565e+02   2.7709098e+02   2.5737177e+02   2.3161435e+02   1.9893048e+02   1.5863151e+02   1.1070663e+02   5.6069905e+01  -3.3980262e+00  -6.5054570e+01  -1.2603189e+02  -1.8380584e+02  -2.3647895e+02  -2.8284808e+02  -3.2240490e+02  -3.5521345e+02  -3.8168692e+02  -4.0248563e+02  -4.1852358e+02  -4.3080081e+02  -4.4000779e+02  -4.4628207e+02  -4.4942033e+02  -4.4931280e+02  -4.4624471e+02  -4.4089092e+02  -4.3403389e+02  -4.2628734e+02  -4.1803318e+02  -4.0953122e+02  -4.0101745e+02  -3.9261824e+02  -3.8416842e+02  -3.7511687e+02  -3.6445888e+02  -3.5067606e+02  -3.3175831e+02  -3.0529387e+02  -2.6875998e+02  -2.2002372e+02  -1.5788043e+02  -8.2528240e+01   4.2674256e+00   9.9484662e+01   1.9953532e+02   3.0092603e+02   4.0038349e+02   4.9473223e+02   5.8094931e+02   6.5621097e+02   7.1803918e+02   7.6465006e+02   7.9519786e+02   8.0981608e+02   8.0940488e+02   7.9525064e+02   7.6893758e+02   7.3255598e+02   6.8862222e+02   6.3965547e+02   5.8790813e+02   5.3534753e+02   4.8373644e+02   4.3478463e+02   3.9021282e+02   3.5159469e+02   3.2003566e+02   2.9588761e+02   2.7880067e+02   2.6805557e+02   2.6279673e+02   2.6212430e+02   2.6510463e+02   2.7060951e+02   2.7727244e+02   2.8364549e+02   2.8811029e+02   2.8869224e+02   2.8320005e+02   2.6964645e+02   2.4683111e+02   2.1473278e+02   1.7434584e+02   1.2714011e+02   7.4562691e+01   1.7995090e+01  -4.1003882e+01  -1.0080784e+02  -1.6006739e+02  -2.1781929e+02  -2.7327374e+02  -3.2547622e+02  -3.7331019e+02  -4.1593497e+02  -4.5322811e+02  -4.8585045e+02  -5.1484995e+02  -5.4117319e+02  -5.6544141e+02  -5.8790083e+02  -6.0856103e+02  -6.2756409e+02  -6.4532989e+02  -6.6220140e+02  -6.7806130e+02  -6.9246872e+02  -7.0524277e+02  -7.1691464e+02  -7.2847260e+02  -7.4047875e+02  -7.5245736e+02  -7.6316406e+02  -7.7128284e+02  -7.7572230e+02  -7.7537703e+02  -7.6897721e+02  -7.5518856e+02  -7.3250843e+02  -6.9910083e+02  -6.5311217e+02  -5.9337345e+02  -5.1998526e+02  -4.3447454e+02  -3.3945696e+02  -2.3803127e+02  -1.3328877e+02  -2.8059954e+01   7.5243413e+01   1.7464913e+02   2.6832900e+02   3.5428870e+02   4.3051698e+02   4.9539289e+02   5.4787284e+02   5.8752177e+02   6.1458532e+02   6.2979292e+02   6.3387673e+02   6.2739517e+02   6.1100088e+02   5.8586893e+02   5.5399048e+02   5.1801040e+02   4.8068566e+02   4.4441054e+02   4.1098381e+02   3.8143894e+02   3.5603233e+02   3.3460317e+02   3.1694304e+02   3.0283190e+02   2.9192922e+02   2.8365124e+02   2.7709853e+02   2.7119956e+02   2.6489068e+02   2.5706708e+02   2.4653339e+02   2.3219650e+02   2.1328579e+02   1.8938656e+02   1.6037802e+02   1.2639681e+02   8.7749714e+01   4.4652590e+01  -2.9906939e+00  -5.5413077e+01  -1.1250539e+02  -1.7352137e+02  -2.3735202e+02  -3.0310511e+02  -3.7026667e+02  -4.3821721e+02  -5.0558834e+02  -5.7019902e+02  -6.2973355e+02  -6.8236203e+02  -7.2678401e+02  -7.6208787e+02  -7.8775583e+02  -8.0372034e+02  -8.1038303e+02  -8.0861798e+02  -7.9966751e+02  -7.8487269e+02  -7.6549408e+02  -7.4277017e+02  -7.1800996e+02  -6.9256750e+02  -6.6774992e+02  -6.4477502e+02  -6.2485217e+02  -6.0925504e+02  -5.9914841e+02  -5.9525135e+02  -5.9754622e+02  -6.0505584e+02  -6.1590760e+02  -6.2782736e+02  -6.3857557e+02  -6.4594567e+02  -6.4756607e+02  -6.4081072e+02  -6.2300358e+02  -5.9193975e+02  -5.4630234e+02  -4.8562676e+02  -4.1018856e+02  -3.2120401e+02  -2.2104056e+02  -1.1308350e+02  -1.3143717e+00   1.1015748e+02   2.1740561e+02   3.1691562e+02   4.0581873e+02   4.8196447e+02   5.4388509e+02   5.9081113e+02   6.2268891e+02   6.4029114e+02   6.4531947e+02   6.4003188e+02   6.2657634e+02   6.0666429e+02   5.8158188e+02   5.5225680e+02   5.1935356e+02   4.8339478e+02   4.4498373e+02   4.0516091e+02   3.6553853e+02   3.2795588e+02   2.9392808e+02   2.6434883e+02   2.3961757e+02   2.1987237e+02   2.0496237e+02   1.9423785e+02   1.8658523e+02   1.8080290e+02   1.7572797e+02   1.6992319e+02   1.6171280e+02   1.4977005e+02   1.3334659e+02   1.1195453e+02   8.5251815e+01   5.3294669e+01   1.6763446e+01  -2.3031771e+01  -6.4333451e+01  -1.0519104e+02  -1.4380914e+02  -1.7909749e+02  -2.1104943e+02  -2.4042010e+02  -2.6806822e+02  -2.9466555e+02  -3.2074822e+02  -3.4677563e+02  -3.7300004e+02  -3.9926513e+02  -4.2517802e+02  -4.5054637e+02  -4.7549330e+02  -5.0015479e+02  -5.2427768e+02  -5.4706759e+02  -5.6752059e+02  -5.8501378e+02  -5.9956150e+02  -6.1156553e+02  -6.2149351e+02  -6.2985461e+02  -6.3738270e+02  -6.4493405e+02  -6.5297783e+02  -6.6135540e+02  -6.6956000e+02  -6.7704048e+02  -6.8334553e+02  -6.8812722e+02  -6.9091265e+02  -6.9079478e+02  -6.8627927e+02  -6.7537405e+02  -6.5592411e+02  -6.2602572e+02  -5.8424271e+02  -5.2962747e+02  -4.6173655e+02  -3.8065062e+02  -2.8708907e+02  -1.8267521e+02  -6.9989932e+01   4.7779037e+01   1.6717013e+02   2.8444765e+02   3.9562723e+02   4.9683263e+02   5.8470261e+02   6.5673393e+02   7.1171678e+02   7.4991849e+02   7.7264496e+02   7.8151704e+02   7.7798811e+02   7.6333132e+02   7.3896957e+02   7.0668659e+02   6.6847448e+02   6.2643787e+02   5.8312410e+02   5.4178408e+02   5.0590120e+02   4.7823233e+02   4.6008586e+02   4.5116302e+02   4.5001592e+02   4.5493474e+02   4.6457460e+02   4.7787924e+02   4.9371324e+02   5.1066322e+02   5.2701971e+02   5.4095940e+02   5.5095846e+02   5.5620792e+02   5.5668340e+02   5.5278613e+02   5.4483628e+02   5.3276187e+02   5.1618537e+02   4.9475354e+02   4.6834627e+02   4.3712054e+02   4.0155846e+02   3.6252269e+02   3.2121564e+02   2.7902828e+02   2.3733158e+02   1.9730189e+02   1.5991550e+02   1.2607762e+02   9.6694872e+01   7.2613840e+01   5.4402424e+01   4.1967038e+01   3.4319448e+01   2.9848212e+01   2.6795165e+01   2.3481747e+01   1.8412893e+01   1.0403729e+01  -1.4545165e+00  -1.7962449e+01  -3.9806243e+01  -6.7260761e+01  -9.9954354e+01  -1.3709817e+02  -1.7784657e+02  -2.2125707e+02  -2.6604078e+02  -3.1042078e+02  -3.5211475e+02  -3.8846708e+02  -4.1676491e+02  -4.3464985e+02  -4.4041350e+02  -4.3293934e+02  -4.1127986e+02  -3.7435548e+02  -3.2122783e+02  -2.5172111e+02  -1.6686627e+02  -6.8820928e+01   3.9648021e+01   1.5560921e+02   2.7604327e+02   3.9777011e+02   5.1758792e+02   6.3260021e+02   7.4032090e+02   8.3848647e+02   9.2497736e+02   9.9804679e+02   1.0565638e+03   1.0999719e+03   1.1281408e+03   1.1413501e+03   1.1402543e+03   1.1258089e+03   1.0993819e+03   1.0628972e+03   1.0187016e+03   9.6928660e+02   9.1714034e+02   8.6470627e+02   8.1430557e+02   7.6804106e+02   7.2765841e+02   6.9424662e+02   6.6794286e+02   6.4792463e+02   6.3269808e+02   6.2055787e+02   6.1001618e+02   5.9981970e+02   5.8854434e+02   5.7445646e+02   5.5592078e+02   5.3179551e+02   5.0153136e+02   4.6510138e+02   4.2286526e+02   3.7557879e+02   3.2455510e+02   2.7163566e+02   2.1881788e+02   1.6780900e+02   1.1975556e+02   7.5159417e+01   3.4039104e+01  -3.7265295e+00  -3.8172685e+01  -6.9270379e+01  -9.7069901e+01  -1.2185188e+02  -1.4432941e+02  -1.6580497e+02  -1.8790764e+02  -2.1201318e+02  -2.3893055e+02  -2.6886051e+02  -3.0138372e+02  -3.3569196e+02  -3.7099951e+02  -4.0672088e+02  -4.4240368e+02  -4.7763090e+02  -5.1195728e+02  -5.4488199e+02  -5.7591475e+02  -6.0469732e+02  -6.3099111e+02  -6.5451715e+02  -6.7492914e+02  -6.9206042e+02  -7.0605320e+02  -7.1706160e+02  -7.2480701e+02  -7.2834301e+02  -7.2617201e+02  -7.1654651e+02  -6.9760656e+02  -6.6742637e+02  -6.2430937e+02  -5.6720997e+02  -4.9598178e+02  -4.1144110e+02  -3.1520789e+02  -2.0933107e+02  -9.5957269e+01   2.2683531e+01   1.4390099e+02   2.6410119e+02   3.7880465e+02   4.8328980e+02   5.7346084e+02   6.4641191e+02   7.0059522e+02   7.3573704e+02   7.5250947e+02   7.5215378e+02   7.3639171e+02   7.0747690e+02   6.6800455e+02   6.2057627e+02   5.6767849e+02   5.1170757e+02   4.5497033e+02   3.9977892e+02   3.4839601e+02   3.0260134e+02   2.6335464e+02   2.3082080e+02   2.0460341e+02   1.8418399e+02   1.6929151e+02   1.5981677e+02   1.5552191e+02   1.5586677e+02   1.5989334e+02   1.6627512e+02   1.7364453e+02   1.8092638e+02   1.8745979e+02   1.9294734e+02   1.9718065e+02   1.9966808e+02   1.9965441e+02   1.9648652e+02   1.8976305e+02   1.7924728e+02   1.6485317e+02   1.4662055e+02   1.2452559e+02   9.8408973e+01   6.8266203e+01   3.4558124e+01  -1.8248231e+00  -3.9774404e+01  -7.8171951e+01  -1.1626338e+02  -1.5400060e+02  -1.9171983e+02  -2.2941212e+02  -2.6659612e+02  -3.0285213e+02  -3.3819956e+02  -3.7297421e+02  -4.0750741e+02  -4.4186876e+02  -4.7566510e+02  -5.0807417e+02  -5.3820854e+02  -5.6539127e+02  -5.8918390e+02  -6.0935900e+02  -6.2579902e+02  -6.3844959e+02  -6.4755733e+02  -6.5385969e+02  -6.5829467e+02  -6.6147829e+02  -6.6333938e+02  -6.6290914e+02  -6.5832371e+02  -6.4727894e+02  -6.2768398e+02  -5.9784284e+02  -5.5616052e+02  -5.0116053e+02  -4.3214308e+02  -3.4978720e+02  -2.5617282e+02  -1.5446912e+02  -4.8474625e+01   5.7899959e+01   1.6102745e+02   2.5782039e+02   3.4582910e+02   4.2319008e+02   4.8857593e+02   5.4130276e+02   5.8146838e+02   6.0970603e+02   6.2666519e+02   6.3272824e+02   6.2802122e+02   6.1270168e+02   5.8753692e+02   5.5434496e+02   5.1573298e+02   4.7429032e+02   4.3212513e+02   3.9108367e+02   3.5310983e+02   3.2023899e+02   2.9419822e+02   2.7596325e+02   2.6558609e+02   2.6230064e+02   2.6485732e+02   2.7200491e+02   2.8275160e+02   2.9621266e+02   3.1139452e+02   3.2708558e+02   3.4175493e+02   3.5363400e+02   3.6110025e+02   3.6306169e+02   3.5894648e+02   3.4839798e+02   3.3117910e+02   3.0740681e+02   2.7774640e+02   2.4326056e+02   2.0504794e+02   1.6405141e+02   1.2110876e+02   7.7054722e+01   3.2822086e+01  -1.0493249e+01  -5.1815601e+01  -9.0557635e+01  -1.2684866e+02  -1.6114545e+02  -1.9378193e+02  -2.2496405e+02  -2.5492469e+02  -2.8395031e+02  -3.1225147e+02  -3.3977043e+02  -3.6615477e+02  -3.9085616e+02  -4.1318783e+02  -4.3244157e+02  -4.4813011e+02  -4.6027234e+02  -4.6955102e+02  -4.7717904e+02  -4.8452582e+02  -4.9269773e+02  -5.0225212e+02  -5.1306691e+02  -5.2441194e+02  -5.3525061e+02  -5.4450247e+02  -5.5108429e+02  -5.5380304e+02  -5.5120807e+02  -5.4156912e+02  -5.2308472e+02  -4.9412127e+02  -4.5321882e+02  -3.9907749e+02  -3.3097741e+02  -2.4943273e+02  -1.5632594e+02  -5.4369523e+01   5.3425125e+01   1.6392483e+02   2.7394965e+02   3.8026287e+02   4.7947124e+02   5.6821178e+02   6.4377840e+02   7.0465608e+02   7.5037265e+02   7.8097517e+02   7.9683044e+02   7.9871210e+02   7.8778666e+02   7.6565230e+02   7.3453159e+02   6.9711724e+02   6.5600783e+02   6.1325006e+02   5.7026620e+02   5.2819537e+02   4.8834402e+02   4.5221429e+02   4.2106434e+02   3.9557915e+02   3.7588866e+02   3.6159083e+02   3.5174100e+02   3.4494053e+02   3.3949556e+02   3.3364078e+02   3.2577807e+02   3.1468282e+02   2.9963967e+02   2.8039698e+02   2.5701079e+02   2.2987893e+02   1.9979731e+02   1.6755867e+02   1.3341319e+02   9.7085796e+01   5.8300231e+01   1.7213267e+01  -2.5511643e+01  -6.8806176e+01  -1.1143505e+02  -1.5236861e+02  -1.9101456e+02  -2.2713291e+02  -2.6057317e+02  -2.9126104e+02  -3.1958129e+02  -3.4654763e+02  -3.7339616e+02  -4.0106938e+02  -4.2989739e+02  -4.5947534e+02  -4.8897846e+02  -5.1779517e+02  -5.4582956e+02  -5.7323629e+02  -5.9999687e+02  -6.2579004e+02  -6.5021321e+02  -6.7309545e+02  -6.9466686e+02  -7.1553994e+02  -7.3646964e+02  -7.5792705e+02
